timestamp,emg1,emg2,emg3,label
2747182,1152,45147,37833,0
2747188,1440,45995,36712,0
2747193,1616,42458,33240,0
2747198,1648,42554,27302,0
2747203,1328,39961,39769,0
2747208,1600,43978,39673,0
2747213,1536,38873,42346,0
2747218,1168,37737,33608,0
2747223,1504,39417,37945,0
2747228,1712,43066,41050,0
2747233,1712,39705,37657,0
2747238,1536,39097,31831,0
2747243,1280,36584,42890,0
2747248,1856,44442,40169,0
2747253,1888,41578,33928,0
2747258,1616,38489,32599,0
2747263,1312,38777,40617,0
2747268,1488,43882,41418,0
2747313,1712,39465,36808,0
2747318,1552,38825,31527,0
2747323,1488,37849,41034,0
2747328,1280,44858,41162,0
2747333,1296,42826,35256,0
2747338,1488,38201,31159,0
2747343,1616,37001,42250,0
2747348,1488,44890,41594,0
2747353,1312,39993,38681,0
2747358,1968,36985,31079,0
2747363,1536,39417,38473,0
2747368,1360,45307,43578,0
2747373,1840,41962,35240,0
2747378,1312,29223,37689,0
2747383,1216,32984,39545,0
2747388,1664,43978,42474,0
2747393,1440,42090,38537,0
2747398,1536,32199,28839,0
2747403,1600,36680,38089,0
2747410,1664,42266,43274,0
2747415,1968,39369,34552,0
2747420,1104,31815,36472,0
2747425,1648,38025,43722,0
2747430,1680,42954,41658,0
2747435,1168,39145,36232,0
2747440,1296,32615,42202,0
2747445,1280,38953,44234,0
2747450,1664,41690,41802,0
2747455,1264,39129,37913,0
2747460,1216,34184,38185,0
2747465,1728,37049,44234,0
2747470,1280,38089,48811,0
2747475,1216,37257,38697,0
2747480,1408,36808,37737,0
2747485,1520,37545,43658,0
2747490,1312,45083,41738,0
2747495,1264,34712,39801,0
2747500,1344,32055,41498,0
2747505,1184,38793,42922,0
2747510,1376,42474,42234,0
2747515,1888,46347,35192,0
2747520,1088,32872,35416,0
2747525,1296,36424,46939,0
2747530,1328,42282,40873,0
2747535,1216,37817,36873,0
2747540,1168,34872,35352,0
2747545,1664,36280,46235,0
2747550,1616,41194,44970,0
2747555,1248,38505,38137,0
2747560,1728,35320,37081,0
2747565,1408,39065,41770,0
2747570,1296,44458,40089,0
2747575,1552,37113,39273,0
2747580,1392,33944,36648,0
2747585,1520,37865,43706,0
2747590,1200,42042,43658,0
2747595,1312,39449,37513,0
2747602,1456,38105,37577,0
2747607,1568,40617,41434,0
2747612,1472,39897,40889,0
2747617,1552,38041,36856,0
2747622,1472,36072,39833,0
2747627,1280,41194,42826,0
2747632,1696,39321,41290,0
2747637,1648,38313,34296,0
2747642,1248,39033,37721,0
2747647,1632,41482,41786,0
2747652,1312,39673,39609,0
2747657,1408,38281,35848,0
2747662,1424,35848,38873,0
2747667,1264,41498,42538,0
2747672,1888,45403,40489,0
2747677,1520,37417,34824,0
2747682,1296,34824,41754,0
2747687,1632,44842,42762,0
2747692,2128,42298,38873,0
2747697,1840,37721,35512,0
2747702,1760,37273,38489,0
2747707,1264,40377,44090,0
2747712,1120,42218,40777,0
2747717,1200,37641,34872,0
2747722,1472,38825,38953,0
2747727,2032,41258,41642,0
2747732,1376,40249,39609,0
2747737,1328,35912,37113,0
2747742,1600,34040,41162,0
2747747,1360,42858,40585,0
2747752,1760,39705,41322,0
2747757,1280,40009,35224,0
2747762,1824,42026,38761,0
2747767,1312,42026,41194,0
2747772,1232,41738,39129,0
2747777,1216,36232,37881,0
2747782,2240,36376,37721,0
2747787,1248,42042,40169,0
2747794,2064,35512,41146,0
2747799,1824,35720,34824,0
2747804,1680,40825,39609,0
2747809,1152,45099,38857,0
2747814,1136,37081,39081,0
2747819,1760,32423,37753,0
2747824,1488,33208,45643,0
2747829,1152,42154,45483,0
2747834,1264,42090,33384,0
2747839,1376,37017,34584,0
2747844,1296,36504,39721,0
2747849,1232,44698,40425,0
2747854,1056,39065,35960,0
2747859,1456,34216,33368,0
2747864,1376,37065,41818,0
2747869,1376,42826,41274,0
2747874,1152,37865,37801,0
2747879,1856,35288,32215,0
2747884,1152,38745,38601,0
2747889,1488,41514,42138,0
2747894,1488,40873,37241,0
2747899,1408,34904,33784,0
2747904,1520,37897,41002,0
2747909,1568,44714,41962,0
2747914,1040,38585,40921,0
2747919,1360,32487,38985,0
2747924,1328,38249,41834,0
2747929,1520,47675,37369,0
2747934,1344,38441,39305,0
2747939,1600,37065,30551,0
2747944,1392,41162,37337,0
2747949,1472,45483,40921,0
2747954,1984,43642,33496,0
2747959,1712,35720,30471,0
2747964,1280,34984,45291,0
2747969,1456,44810,40905,0
2747974,1520,39577,35736,0
2747979,1840,36873,34680,0
2748020,2368,35624,34920,0
2748025,2096,39961,43226,0
2748030,2112,40505,42458,0
2748035,1472,39673,36312,0
2748040,1472,33528,33768,0
2748045,1440,39273,40665,0
2748050,2224,49996,39641,0
2748055,2688,41290,38137,0
2748060,2144,40681,34152,0
2748065,1808,40697,40697,0
2748070,1824,43450,42266,0
2748075,2640,38169,41578,0
2748080,1840,40633,33656,0
2748085,1728,41258,41834,0
2748090,1920,44010,43370,0
2748095,1888,39897,37097,0
2748100,2512,34584,37881,0
2748105,1728,40057,42810,0
2748110,2048,45659,43850,0
2748115,2224,41818,40697,0
2748120,1808,35944,36008,0
2748125,2672,40986,39145,0
2748130,2640,45067,42954,0
2748135,2640,37417,38073,0
2748140,1888,35960,36312,0
2748145,2224,42666,41226,0
2748150,1664,40137,45835,0
2748155,2064,40761,40425,0
2748160,2032,38281,36296,0
2748165,1936,38201,41722,0
2748170,3632,44538,42826,0
2748175,1920,40121,41114,0
2748180,1680,31879,35320,0
2748185,1632,43562,39577,0
2748190,2000,45851,42058,0
2748195,2080,39337,38105,0
2748200,2576,38489,36376,0
2748205,1728,44410,36824,0
2748212,1984,44570,40329,0
2748217,2176,37481,37449,0
2748222,1776,38105,37321,0
2748227,2000,41562,40889,0
2748232,2768,44138,41162,0
2748237,2112,36456,35432,0
2748242,2192,38185,35720,0
2748247,3136,45083,42954,0
2748252,2416,43946,38361,0
2748257,2112,38553,36264,0
2748262,2080,36168,38249,0
2748267,1888,42266,41722,0
2748272,2320,45499,42074,0
2748277,1936,37529,40970,0
2748282,2816,41610,36648,0
2748287,3072,33176,42554,0
2748292,2240,43866,41834,0
2748297,2240,39801,37225,0
2748302,2000,36696,34616,0
2748307,2432,44122,41018,0
2748312,2560,45963,40281,0
2748317,2192,37961,36408,0
2748322,1760,38041,35976,0
2748327,1824,41626,39769,0
2748332,2304,43738,42554,0
2748337,2096,37257,36520,0
2748342,2304,39385,35656,0
2748347,2016,42650,39017,0
2748352,2560,50012,39785,0
2748357,1968,35544,37769,0
2748362,2496,38569,35384,0
2748367,2352,43290,39385,0
2748372,1760,42170,42586,0
2748377,1952,31415,39929,0
2748382,1344,35176,35640,0
2748387,1296,41578,41738,0
2748392,1440,42090,42282,0
2748397,1328,38393,37257,0
2748404,1616,37449,38937,0
2748409,1568,39241,39833,0
2748414,1696,38313,41146,0
2748419,1312,34952,37801,0
2748424,1280,35784,37273,0
2748429,1824,40553,41866,0
2748434,1520,38713,40153,0
2748439,1728,34920,37801,0
2748444,1408,38201,37977,0
2748449,1728,40169,41882,0
2748454,1632,38073,41450,0
2748459,1440,37161,37897,0
2748464,1744,37673,38329,0
2748469,1520,41626,42682,0
2748474,1472,42906,38425,0
2748479,2000,39145,35752,0
2748484,2368,35768,40617,0
2748489,1968,41930,44202,0
2748494,1904,39593,41738,0
2748499,1984,36873,38297,0
2748504,2576,39241,39417,0
2748509,2000,43514,41178,0
2748514,1984,40009,39481,0
2748519,2208,34616,35416,0
2748524,2848,36552,41610,0
2748529,1920,40233,42682,0
2748534,1984,41386,40185,0
2748539,2064,35848,39449,0
2748544,2304,37961,39369,0
2748549,2144,41434,42250,0
2748554,2144,41338,42266,0
2748559,1936,37433,38121,0
2748564,1904,37001,38489,0
2748569,1952,41706,42602,0
2748574,2432,39513,40633,0
2748579,2240,36056,37321,0
2748584,1872,37433,38345,0
2748589,1648,41290,41898,0
2748596,1952,37977,38441,0
2748601,2672,35640,35752,0
2748606,1872,38873,42522,0
2748611,2000,44714,42682,0
2748616,2224,38745,36921,0
2748621,1856,35464,35304,0
2748626,2016,42650,39977,0
2748631,2064,44682,42842,0
2748636,2112,40025,39625,0
2748641,1904,36088,35288,0
2748646,1968,39049,38697,0
2748651,2224,40553,42858,0
2748656,2016,39529,39177,0
2748661,2384,34232,35784,0
2748666,2320,40777,39881,0
2748671,2384,44106,42074,0
2748676,2400,39465,38649,0
2748681,4289,39065,35496,0
2748686,2384,40970,40025,0
2748691,2624,43850,43098,0
2748696,2080,38985,40121,0
2748701,2128,35048,36024,0
2748706,2960,41306,40089,0
2748711,2576,45275,43178,0
2748716,2320,40761,37513,0
2748721,2272,34632,35176,0
2748726,2560,39385,40201,0
2748731,2768,42986,43178,0
2748736,2768,40809,38889,0
2748741,2320,34392,35496,0
2748746,3472,39865,37465,0
2748751,2240,46075,44250,0
2748756,2688,40025,37481,0
2748761,2336,35800,34216,0
2748766,2368,39625,38793,0
2748771,2336,44202,45195,0
2748776,2432,42554,38905,0
2748781,2496,35400,31159,0
2748821,2624,33240,35640,0
2748826,2464,39177,40169,0
2748831,2864,42714,43658,0
2748836,2800,39673,38809,0
2748841,2656,35640,35896,0
2748846,2960,37977,43514,0
2748851,2224,47691,41834,0
2748856,2528,38873,40697,0
2748861,2160,35832,34616,0
2748866,2816,41722,38617,0
2748871,2816,45307,41546,0
2748876,12339,53437,39081,0
2748881,3120,31319,37673,0
2748886,6545,34408,39225,0
2748891,2624,45819,42506,0
2748896,2560,41306,38153,0
2748901,2256,35032,37049,0
2748906,2144,40345,39625,0
2748911,2336,45451,43066,0
2748916,2768,38249,40601,0
2748921,2288,35928,34232,0
2748926,2336,38729,41690,0
2748931,2560,44602,42170,0
2748936,2496,40345,39337,0
2748941,2256,35432,35912,0
2748946,2208,39737,37785,0
2748951,2336,45163,43306,0
2748956,2416,40041,39689,0
2748961,2384,35912,31031,0
2748966,2416,38905,42026,0
2748971,2992,42458,41658,0
2748976,2592,40585,38745,0
2748981,2464,35640,35592,0
2748986,2528,39993,39401,0
2748991,2768,44122,41514,0
2748996,2288,40681,38825,0
2749001,2736,35896,34440,0
2749008,2688,40137,38025,0
2749013,2576,43226,42522,0
2749018,2816,44154,38249,0
2749023,2496,36280,37049,0
2749028,2336,40745,39497,0
2749033,2320,43386,41034,0
2749038,3344,42394,38233,0
2749043,2336,35896,37097,0
2749048,2784,40089,38761,0
2749053,2832,43530,41402,0
2749058,1904,41354,38921,0
2749063,2640,37113,38857,0
2749068,1968,40073,39673,0
2749073,2384,42634,43626,0
2749078,2752,43690,35896,0
2749083,3552,38233,36937,0
2749088,2080,39769,41402,0
2749093,2544,45563,40233,0
2749098,2352,41610,39177,0
2749103,2288,34552,37145,0
2749108,3456,39897,39801,0
2749113,2112,42346,40825,0
2749118,1728,40457,37833,0
2749123,1968,38857,35992,0
2749128,1696,40377,39177,0
2749133,2368,42490,42570,0
2749138,2272,40649,38169,0
2749143,2000,35288,37065,0
2749148,1456,40105,39641,0
2749153,2448,42522,42282,0
2749158,1888,41322,36680,0
2749163,1936,36536,35096,0
2749168,1536,40809,36856,0
2749173,1888,41258,44746,0
2749178,2400,42410,38937,0
2749183,1888,36808,34600,0
2749188,1872,39865,38953,0
2749193,1616,44378,39673,0
2749200,2480,35400,35128,0
2749205,1712,37209,36536,0
2749210,1952,40697,39721,0
2749215,1824,41546,42186,0
2749220,1696,37417,37385,0
2749225,2208,38809,33400,0
2749230,1872,40537,40345,0
2749235,1520,41258,39833,0
2749240,1568,36328,37353,0
2749245,1696,36152,37833,0
2749250,2144,39929,40361,0
2749255,1856,42346,42522,0
2749260,1728,37801,37065,0
2749265,1872,37529,34232,0
2749270,1632,42218,40281,0
2749275,1712,43978,37913,0
2749280,1856,38521,34152,0
2749285,1936,36905,37545,0
2749290,4769,46731,41610,0
2749295,1920,42218,39881,0
2749300,4481,31607,40633,0
2749305,2160,37609,34872,0
2749310,1728,42202,38969,0
2749315,1696,41386,43690,0
2749320,1664,36616,35800,0
2749325,1776,36680,36744,0
2749330,1632,41370,39897,0
2749335,2000,41242,43482,0
2749340,1920,38953,34680,0
2749345,1744,36120,37129,0
2749350,1520,41610,38009,0
2749355,1776,42634,42874,0
2749360,1952,38873,37769,0
2749365,2016,36312,35896,0
2749370,1872,39129,43082,0
2749375,2288,38265,45659,0
2749380,2016,39593,34760,0
2749385,2272,34296,38937,0
2749392,2048,44522,39369,0
2749397,1712,38361,41690,0
2749402,1904,36873,32952,0
2749407,1920,41562,39449,0
2749412,2304,44474,39161,0
2749417,1888,37033,42202,0
2749422,1792,35848,33560,0
2749427,1888,39977,36232,0
2749432,1984,45018,38745,0
2749437,2480,43626,36664,0
2749442,1568,35864,35032,0
2749447,2240,36504,38921,0
2749452,2320,44810,42666,0
2749457,2848,41754,40761,0
2749462,2064,36248,33592,0
2749467,1600,39161,40777,0
2749472,2320,41690,45099,0
2749477,1552,40713,37833,0
2749482,2992,37833,34792,0
2749487,1504,38409,38025,0
2749492,1872,43642,41034,0
2749497,1712,38489,42970,0
2749502,1680,35224,35320,0
2749507,2208,40361,38521,0
2749512,2032,43674,41898,0
2749517,1840,38025,42506,0
2749522,1936,35304,35464,0
2749527,1760,38073,37977,0
2749532,2400,40601,46091,0
2749537,2560,38121,41626,0
2749542,2240,33800,35752,0
2749547,2752,37337,36360,0
2749552,2768,41626,41866,0
2749557,2368,39353,43818,0
2749562,1872,36937,37321,0
2749567,1712,36889,40169,0
2749572,2608,40073,44922,0
2749577,2704,38937,40729,0
2749618,2992,35416,40025,0
2749623,2096,35768,33912,0
2749628,1600,40329,38537,0
2749633,2256,42810,41882,0
2749638,2608,41754,38121,0
2749643,2240,36873,35928,0
2749648,1648,37849,40745,0
2749653,1808,43466,44106,0
2749658,2272,41162,37945,0
2749663,1808,35272,35480,0
2749668,3648,44058,38153,0
2749673,1872,43322,44490,0
2749678,2272,39385,39593,0
2749683,3792,37385,35912,0
2749688,2224,40809,37897,0
2749693,1712,43626,42442,0
2749698,2464,42922,37241,0
2749703,1776,34904,35688,0
2749708,1248,40633,38345,0
2749713,2368,43242,43290,0
2749718,1632,40409,39625,0
2749723,1632,35464,35880,0
2749728,1984,41274,36953,0
2749733,1888,45675,41610,0
2749738,5441,47275,36792,0
2749743,1856,33928,36744,0
2749748,1648,38089,37449,0
2749753,1760,44346,44314,0
2749758,1872,37993,41498,0
2749763,1632,35304,33640,0
2749768,1792,39961,38105,0
2749773,2704,41914,42234,0
2749778,1776,39209,39721,0
2749783,1840,35416,35480,0
2749788,2480,41354,39129,0
2749793,1888,40425,46875,0
2749798,2176,41114,37881,0
2749803,1952,38457,31463,0
2749810,2496,36889,43402,0
2749815,1952,40393,43690,0
2749820,1856,38345,37913,0
2749825,1760,33912,37385,0
2749830,2128,37897,40745,0
2749835,2352,42330,40553,0
2749840,3760,40633,39561,0
2749845,2048,33864,37273,0
2749850,1600,38105,40185,0
2749855,1824,42538,41786,0
2749860,2416,37737,40105,0
2749865,1728,36312,36472,0
2749870,2368,38745,40857,0
2749875,1680,43610,40825,0
2749880,1872,38713,39017,0
2749885,1504,35688,37401,0
2749890,1680,39689,39113,0
2749895,1632,42986,41626,0
2749900,2080,39081,39049,0
2749905,1680,35496,36296,0
2749910,1568,38281,39801,0
2749915,1632,42362,42074,0
2749920,2416,37001,39081,0
2749925,1888,34392,37657,0
2749930,1808,39209,39497,0
2749935,1728,42842,40009,0
2749940,1840,38249,39257,0
2749945,1600,34744,37865,0
2749950,1696,39417,39609,0
2749955,2880,46603,39993,0
2749960,2048,36152,42346,0
2749965,1872,33464,37673,0
2749970,2096,39321,38969,0
2749975,1936,43258,41834,0
2749980,2192,38345,39529,0
2749985,1776,34216,37225,0
2749990,1808,39769,39321,0
2749995,1808,42778,41626,0
2750002,1760,37033,36648,0
2750007,2400,38921,37145,0
2750012,1808,42842,40057,0
2750017,3600,46251,38665,0
2750022,1968,36424,37897,0
2750027,4048,40329,37561,0
2750032,1920,41146,41850,0
2750037,1584,41946,39385,0
2750042,3280,39929,36600,0
2750047,2096,39593,36232,0
2750052,1984,41178,43786,0
2750057,2080,39929,42810,0
2750062,6209,39369,40505,0
2750067,1808,35544,39289,0
2750072,2736,42602,41066,0
2750077,1712,40377,41722,0
2750082,2304,35208,40585,0
2750087,1552,36408,35672,0
2750092,1856,39465,44698,0
2750097,1680,40809,42538,0
2750102,2208,37097,38553,0
2750107,1824,37273,35928,0
2750112,1808,40281,42842,0
2750117,2960,44074,39097,0
2750122,3184,39097,39001,0
2750127,1776,34312,41066,0
2750132,1888,38889,43562,0
2750137,1600,42154,42426,0
2750142,2928,42538,34072,0
2750147,1920,34392,40409,0
2750152,5233,48507,37705,0
2750157,1744,41002,41642,0
2750162,2144,36264,38697,0
2750167,2288,32984,42314,0
2750172,2208,44202,36520,0
2750177,2176,43482,40217,0
2750182,2400,35304,39001,0
2750187,1664,36136,38121,0
2750194,2304,42474,43050,0
2750199,2496,38345,40009,0
2750204,2032,34280,34248,0
2750209,2112,39913,38505,0
2750214,2320,40505,44314,0
2750219,1824,38409,40777,0
2750224,3104,29367,39865,0
2750229,2400,34472,44282,0
2750234,2112,45707,38089,0
2750239,2144,39657,37193,0
2750244,1744,32295,39593,0
2750249,3616,39625,43082,0
2750254,2176,42154,44858,0
2750259,2432,37017,41738,0
2750264,1936,29543,41514,0
2750269,2576,39737,37817,0
2750274,2272,42378,45243,0
2750279,1872,35512,42010,0
2750284,2000,36937,33192,0
2750289,1728,36808,42026,0
2750294,1808,41162,43562,0
2750299,1792,36600,42362,0
2750304,1792,30743,41434,0
2750309,1760,37609,40409,0
2750314,1664,42666,41866,0
2750319,1664,37305,41178,0
2750324,1808,37577,29367,0
2750329,1808,35192,43482,0
2750334,1776,42650,44570,0
2750339,2224,38937,40489,0
2750344,1760,32792,38249,0
2750349,1712,38249,38873,0
2750354,1712,43306,43402,0
2750359,2208,39273,39449,0
2750364,1632,33240,38809,0
2750369,1968,37193,40585,0
2750374,2240,41322,42874,0
2750379,1856,39465,39417,0
2750420,2384,34504,39721,0
2750425,2512,33608,39097,0
2750430,1696,38025,41050,0
2750435,1680,43354,43034,0
2750440,1696,37865,40169,0
2750445,1616,31991,38265,0
2750450,1888,38905,40713,0
2750455,1760,43082,43194,0
2750460,2016,39705,40201,0
2750465,1792,33832,38425,0
2750470,2272,37561,41130,0
2750475,1984,47547,34728,0
2750480,1824,37561,40633,0
2750485,1712,31927,38585,0
2750490,1872,39129,40745,0
2750495,1792,43546,43994,0
2750500,1744,37705,40537,0
2750505,1728,32952,38569,0
2750510,2368,37241,42474,0
2750515,1824,43514,44522,0
2750520,2080,39129,39225,0
2750525,1776,31863,35432,0
2750530,1696,37209,42074,0
2750535,1696,42346,44266,0
2750540,1696,37145,41050,0
2750545,1824,33080,38617,0
2750550,1872,37705,41402,0
2750555,1728,43210,44122,0
2750560,1664,38281,38761,0
2750565,2304,36376,32840,0
2750570,3168,41818,40889,0
2750575,2240,42522,44426,0
2750580,2096,36840,40873,0
2750585,2192,32407,37225,0
2750590,2960,43098,37449,0
2750595,2032,41994,41946,0
2750600,3024,36264,41290,0
2750607,2608,32151,38601,0
2750612,2720,36104,42266,0
2750617,1760,43370,43162,0
2750622,4064,40361,40745,0
2750627,1664,33928,37385,0
2750632,2544,39801,41978,0
2750637,1792,42938,42458,0
2750642,1824,38089,39577,0
2750647,1984,35960,36072,0
2750652,1984,43482,35080,0
2750657,6625,50668,40009,0
2750662,1728,38313,38665,0
2750667,2032,36120,36472,0
2750672,1792,39769,39321,0
2750677,1920,47131,38713,0
2750682,5041,43994,39673,0
2750687,4129,37769,34024,0
2750692,1680,38505,39689,0
2750697,1856,42906,42682,0
2750702,5089,42682,38633,0
2750707,1600,35160,36937,0
2750712,1808,38185,40649,0
2750717,3392,45755,42922,0
2750722,1888,37721,41050,0
2750727,1808,35912,34568,0
2750732,1728,37273,43258,0
2750737,5969,46987,43914,0
2750742,3408,44954,35704,0
2750747,1792,34312,36889,0
2750752,1584,37977,40601,0
2750757,6657,49372,39129,0
2750762,1840,39177,38473,0
2750767,1568,36168,36584,0
2750772,4577,41626,38553,0
2750777,2112,41946,42570,0
2750782,1728,38377,39081,0
2750787,2288,35128,35432,0
2750792,4737,43322,38953,0
2750799,2048,39113,40409,0
2750804,2080,36536,38521,0
2750809,1584,37897,34904,0
2750814,1616,40025,43050,0
2750819,1712,41898,39673,0
2750824,1840,36296,35656,0
2750829,2160,36696,40009,0
2750834,1824,38425,45387,0
2750839,2128,39305,42714,0
2750844,1568,34664,38505,0
2750849,1680,37049,36008,0
2750854,1584,41514,38777,0
2750859,1792,41418,38169,0
2750864,2000,36552,36584,0
2750869,1824,35624,41178,0
2750874,1872,40986,44682,0
2750879,2224,44346,38665,0
2750884,1888,36889,33992,0
2750889,2704,38105,36392,0
2750894,2608,40121,42026,0
2750899,2560,36376,45771,0
2750904,2576,38809,37241,0
2750909,2048,37721,39081,0
2750914,1696,41466,42890,0
2750919,1808,39977,42458,0
2750924,1904,35880,36504,0
2750929,1680,35752,38489,0
2750934,1792,37145,44394,0
2750939,2592,41978,37321,0
2750944,1968,38265,35224,0
2750949,1888,39065,34872,0
2750954,1744,41322,45067,0
2750959,2096,40537,42426,0
2750964,2528,33848,38697,0
2750969,1680,35176,40745,0
2750974,2624,40745,41994,0
2750979,1696,41402,42442,0
2750984,1888,33928,41866,0
2750991,1984,35768,41482,0
2750996,1968,46443,39481,0
2751001,1744,40521,37385,0
2751006,1744,34440,38489,0
2751011,1696,37609,41114,0
2751016,1904,42474,45018,0
2751021,1728,40201,36632,0
2751026,2240,32904,38969,0
2751031,2544,36344,43658,0
2751036,1888,47867,38841,0
2751041,2016,36760,42042,0
2751046,1952,35288,32455,0
2751051,1792,35288,40745,0
2751056,1728,43786,41034,0
2751061,1664,38681,39753,0
2751066,2176,34392,35672,0
2751071,1664,37337,42394,0
2751076,2336,42250,43786,0
2751081,1760,37177,42538,0
2751086,2288,35240,34968,0
2751091,1920,36664,42826,0
2751096,1824,45819,41306,0
2751101,1808,39145,38761,0
2751106,1808,34984,35960,0
2751111,1856,38697,39321,0
2751116,2048,44154,40201,0
2751121,1888,39881,38361,0
2751126,2432,34616,36424,0
2751131,1968,40505,39097,0
2751136,2464,44570,40617,0
2751141,1744,39753,38777,0
2751146,2144,33784,37881,0
2751151,1984,38969,39369,0
2751156,2112,42954,43450,0
2751161,1744,40409,39049,0
2751166,2320,34920,36600,0
2751171,1968,38569,38121,0
2751176,1936,43610,43914,0
2751218,8306,50252,39289,0
2751223,2560,34600,44090,0
2751228,2320,36248,35048,0
2751233,2640,39449,39177,0
2751238,2400,45627,38041,0
2751243,2288,39801,36232,0
2751248,2288,37561,35784,0
2751253,5025,42778,37929,0
2751258,3056,47451,38169,0
2751263,2768,41130,36536,0
2751268,1808,36248,36376,0
2751273,2208,40441,37641,0
2751278,2080,46427,40649,0
2751283,2208,38329,40121,0
2751288,2064,37081,35576,0
2751293,1856,41818,36889,0
2751298,1472,44314,39913,0
2751303,2128,41562,36680,0
2751308,2192,37193,35464,0
2751313,2304,39641,39289,0
2751318,2352,44426,41290,0
2751323,2336,41402,36376,0
2751328,1408,35336,36504,0
2751333,2192,38473,41034,0
2751338,1968,43722,43546,0
2751343,2128,36008,41882,0
2751348,1840,36648,35320,0
2751353,2576,40537,37753,0
2751358,2336,44426,39465,0
2751363,3056,41098,36889,0
2751368,1600,36312,35912,0
2751373,2400,39961,39593,0
2751378,2352,41754,44570,0
2751383,1952,39497,38281,0
2751388,2192,35752,35928,0
2751393,2096,41354,37305,0
2751398,2272,45707,39865,0
2751403,2496,39033,40233,0
2751410,2352,36937,35672,0
2751415,2560,42058,41482,0
2751420,2192,41802,41578,0
2751425,2240,34904,39785,0
2751430,2528,35464,39017,0
2751435,2128,43098,38393,0
2751440,1968,41690,42282,0
2751445,2832,34952,40681,0
2751450,2160,36680,37609,0
2751455,2016,42090,38505,0
2751460,2928,40905,43194,0
2751465,2160,36024,40297,0
2751470,2672,35960,36456,0
2751475,2064,40457,40201,0
2751480,1968,40745,41530,0
2751485,2080,35320,40569,0
2751490,2112,35752,37865,0
2751495,3376,44634,37561,0
2751500,2016,42746,41578,0
2751505,2624,36680,40233,0
2751510,2336,36120,37209,0
2751515,1840,41642,38361,0
2751520,2640,39561,45195,0
2751525,1888,36760,38377,0
2751530,1696,37385,34392,0
2751535,2304,41770,39513,0
2751540,2368,42650,41946,0
2751545,1968,35080,39017,0
2751550,1664,37113,36648,0
2751555,2128,43258,37625,0
2751560,2480,41402,42394,0
2751565,2608,36008,39785,0
2751570,1920,36392,35768,0
2751575,2480,39081,44042,0
2751580,1984,40649,42266,0
2751585,1840,37017,39881,0
2751590,1824,35096,38089,0
2751597,2176,40857,41930,0
2751602,2240,37945,39193,0
2751607,2224,33592,35288,0
2751612,1936,40745,36280,0
2751617,1936,43338,40473,0
2751622,2400,43002,36680,0
2751627,2128,35416,33384,0
2751632,4209,41882,36136,0
2751637,2016,43178,42810,0
2751642,1968,40201,38409,0
2751647,2944,36152,36072,0
2751652,2192,39673,34760,0
2751657,2080,45547,39561,0
2751662,2096,41402,38761,0
2751667,1968,36456,35816,0
2751672,2176,40713,36921,0
2751677,1888,42634,45611,0
2751682,2480,38793,39609,0
2751687,1936,36280,35272,0
2751692,1872,39001,37753,0
2751697,2320,42666,43674,0
2751702,2528,38713,44346,0
2752007,2384,39113,31479,1
2752012,2544,38281,35864,1
2752017,2304,40377,41242,1
2752022,2240,40409,43786,1
2752027,2144,37209,36584,1
2752032,2368,38601,38361,1
2752037,2208,42554,38985,1
2752042,3008,42250,39801,1
2752047,2928,35240,38857,1
2752052,2016,38185,36504,1
2752057,2432,42074,40809,1
2752062,1968,39785,40505,1
2752067,2320,35272,39577,1
2752072,3216,38873,38473,1
2752077,1968,43418,37849,1
2752082,2576,41002,40105,1
2752089,2208,34440,34696,1
2752094,2736,40201,38729,1
2752099,2240,42810,41482,1
2752104,2288,37113,41626,1
2752109,1888,35080,37465,1
2752114,1936,39705,36664,1
2752119,2176,43370,42842,1
2752124,1952,37193,40185,1
2752129,2224,35448,35048,1
2752134,2032,37849,39385,1
2752139,1824,43930,43626,1
2752144,2416,37321,43802,1
2752149,1744,33544,36873,1
2752154,1984,39673,40809,1
2752159,2912,46715,38489,1
2752164,2208,36536,41978,1
2752169,1968,30855,39177,1
2752174,2528,37897,40633,1
2752179,2160,43066,40633,1
2752184,1824,38345,36344,1
2752189,1984,32551,39433,1
2752194,1888,39977,35432,1
2752199,1936,41642,45227,1
2752204,1888,37609,41114,1
2752209,2352,36392,33192,1
2752214,1872,38873,38793,1
2752219,2192,44202,37513,1
2752224,2336,39465,39897,1
2752229,1840,37689,30711,1
2752234,2208,38153,42458,1
2752239,2496,41882,42922,1
2752244,2192,35656,45018,1
2752249,2176,35272,35992,1
2752254,1712,38777,35432,1
2752259,2048,43210,44426,1
2752264,2000,41130,36136,1
2752269,2176,33384,39369,1
2752274,1872,40089,40809,1
2752314,2240,34520,38889,1
2752319,2352,44570,40185,1
2752324,1840,38825,39225,1
2752329,1712,35096,34056,1
2752334,1952,40553,40297,1
2752339,1936,42314,43514,1
2752344,2144,37385,43338,1
2752349,4064,31831,36504,1
2752354,2656,38585,39081,1
2752359,1936,43482,43466,1
2752364,1952,37881,41594,1
2752369,2176,35912,35128,1
2752374,2320,38233,37577,1
2752379,2224,41962,41802,1
2752384,3536,36873,41146,1
2752389,2240,33864,36985,1
2752394,2000,40249,37625,1
2752399,1760,42250,42826,1
2752404,18468,52636,40841,1
2752409,2352,33960,35000,1
2752414,2432,39593,38153,1
2752419,1920,44074,38489,1
2752424,2416,38473,40889,1
2752429,2352,34616,35672,1
2752434,2272,37977,39977,1
2752439,1952,42458,41514,1
2752444,1888,39017,38793,1
2752449,2240,35016,36376,1
2752454,1888,38329,39513,1
2752459,2144,43050,43178,1
2752464,2720,37849,40649,1
2752469,2064,34184,37065,1
2752474,1808,39497,38153,1
2752479,2592,46203,40681,1
2752484,2384,39385,39913,1
2752489,2576,37849,31879,1
2752494,2576,37609,39033,1
2752499,2064,41226,42058,1
2752506,2224,38665,40153,1
2752511,2288,35432,36344,1
2752516,2016,39193,38409,1
2752521,2784,42330,43898,1
2752526,2064,39961,38569,1
2752531,1728,34488,33704,1
2752536,2064,40505,38825,1
2752541,1920,42682,41482,1
2752546,2256,39401,38857,1
2752551,2368,36616,31911,1
2752556,1808,41290,38089,1
2752561,2032,43274,40377,1
2752566,2272,38745,38377,1
2752571,2336,36760,37241,1
2752576,1872,39817,39257,1
2752581,1968,42234,40505,1
2752586,1744,40153,40841,1
2752591,1808,36376,33720,1
2752596,1760,39881,36504,1
2752601,2016,43994,42890,1
2752606,2528,39593,37081,1
2752611,1840,36168,36184,1
2752616,2800,37817,39449,1
2752621,1936,43498,41258,1
2752626,2048,38857,39737,1
2752631,2208,35480,35720,1
2752636,2720,39449,39689,1
2752641,1776,42378,43130,1
2752646,2272,40041,38777,1
2752651,2528,33816,34984,1
2752656,1984,39161,37257,1
2752661,1520,44010,39385,1
2752666,1936,39673,37705,1
2752671,1792,35560,35960,1
2752676,2064,39737,38281,1
2752681,1888,42538,41930,1
2752686,2528,38137,39129,1
2752691,6593,40873,35336,1
2752698,2016,42362,39673,1
2752703,2496,42538,40713,1
2752708,1936,37001,37609,1
2752713,1760,37785,34632,1
2752718,1744,44938,38313,1
2752723,2464,41690,43866,1
2752728,1280,37593,37289,1
2752733,1968,37593,35864,1
2752738,1392,41930,40617,1
2752743,2256,42266,41642,1
2752748,2416,37561,38521,1
2752753,1680,37977,35384,1
2752758,1904,42762,40281,1
2752763,2432,43082,42170,1
2752768,1616,37065,38617,1
2752773,1584,37913,34296,1
2752778,1968,41994,39497,1
2752783,1888,43066,41306,1
2752788,1264,39513,35960,1
2752793,1824,39705,34568,1
2752798,1728,40105,40505,1
2752803,1648,42858,41066,1
2752808,1520,39449,35864,1
2752813,1824,36232,33720,1
2752818,2016,42410,39865,1
2752823,1696,43498,42122,1
2752828,1472,38393,37785,1
2752833,1808,38169,33816,1
2752838,2016,44442,38585,1
2752843,3984,44250,44410,1
2752848,1936,37865,37225,1
2752853,2304,36472,36120,1
2752858,2832,44314,39913,1
2752863,1680,42858,40777,1
2752868,1504,38137,39337,1
2752873,2000,34840,34408,1
2752878,2032,43930,39257,1
2752883,2016,44602,39289,1
2752890,1664,35800,34456,1
2752895,2064,39065,35592,1
2752900,1776,43658,39641,1
2752905,2064,39849,39353,1
2752910,1728,33160,39177,1
2752915,1632,38777,38041,1
2752920,1616,43018,40297,1
2752925,1776,39113,40553,1
2752930,2048,35128,36040,1
2752935,1952,39209,39177,1
2752940,2544,42602,42234,1
2752945,1760,39977,39497,1
2752950,1728,35784,35944,1
2752955,1616,38505,35576,1
2752960,1856,42234,42170,1
2752965,2512,37929,42842,1
2752970,1936,38041,34360,1
2752975,1776,37945,37561,1
2752980,2368,43242,40729,1
2752985,1904,39097,40281,1
2752990,2048,35928,36600,1
2752995,1760,37385,38825,1
2753000,2096,42506,42890,1
2753005,1696,39769,42874,1
2753010,1808,35976,37305,1
2753015,2256,36600,37433,1
2753020,2576,41578,40729,1
2753025,1680,41562,41322,1
2753030,1712,35160,37129,1
2753035,1808,37769,39465,1
2753040,2112,41210,45163,1
2753045,1520,41242,39401,1
2753050,1792,35160,36072,1
2753055,1856,37593,37929,1
2753060,1888,44234,37673,1
2753065,2176,41834,38889,1
2753070,1808,39689,32343,1
2753075,2240,38729,34408,1
2753117,1936,37961,39385,1
2753122,1984,43594,40970,1
2753127,3664,41578,40377,1
2753132,1776,35608,35912,1
2753137,3616,42698,39161,1
2753142,2208,39305,47003,1
2753147,1952,40281,38105,1
2753152,1776,34344,36168,1
2753157,1680,43114,33896,1
2753162,1808,43914,41946,1
2753167,1632,38569,39753,1
2753172,1888,37257,33160,1
2753177,1664,40713,35160,1
2753182,2400,45883,41114,1
2753187,1552,39929,40217,1
2753192,1776,36985,33592,1
2753197,1840,40345,36376,1
2753202,1616,43370,40441,1
2753207,2720,40809,39257,1
2753212,1712,35768,34568,1
2753217,2032,38073,42682,1
2753222,2000,44698,42778,1
2753227,2192,39497,40169,1
2753232,1760,37593,33352,1
2753237,1840,42058,35928,1
2753242,1968,42250,44698,1
2753247,1552,40505,38121,1
2753252,2176,34920,36120,1
2753257,2080,42170,33960,1
2753262,2096,43274,40825,1
2753267,1792,39369,41002,1
2753272,2240,35640,34856,1
2753277,2240,40505,38665,1
2753282,1792,43978,40265,1
2753287,2592,39065,42554,1
2753292,2528,31159,32840,1
2753297,5473,32183,43866,1
2753304,3088,40377,43546,1
2753309,2016,37529,37577,1
2753314,1888,34376,36376,1
2753319,2256,41082,39913,1
2753324,2560,40153,45018,1
2753329,1696,37145,37145,1
2753334,1872,34376,35208,1
2753339,2096,39593,43178,1
2753344,1648,39625,44538,1
2753349,1888,36873,39673,1
2753354,1792,31143,42410,1
2753359,1888,41114,39881,1
2753364,8306,49484,43914,1
2753369,1712,37433,36392,1
2753374,1888,35912,36536,1
2753379,1968,42554,38921,1
2753384,1712,42026,43546,1
2753389,1840,38073,37369,1
2753394,2640,35496,37881,1
2753399,1872,39929,40825,1
2753404,2112,41802,42346,1
2753409,8001,45595,35480,1
2753414,4145,33096,35304,1
2753419,3408,41082,46139,1
2753424,3280,43514,42986,1
2753429,3040,38937,36856,1
2753434,10850,26006,36344,1
2753439,2256,42314,40089,1
2753444,7617,51260,39961,1
2753449,3024,39753,36328,1
2753454,2688,37401,33832,1
2753459,4193,43466,40713,1
2753464,3248,43290,43210,1
2753469,2352,39161,37929,1
2753474,9698,28342,34216,1
2753479,2624,38777,40249,1
2753484,6609,49228,40329,1
2753489,3472,38697,36264,1
2753496,3280,41882,34008,1
2753501,2800,43402,43898,1
2753506,2864,44202,40073,1
2753511,2896,37033,36440,1
2753516,4241,35064,36056,1
2753521,2592,43130,41642,1
2753526,4609,44890,40745,1
2753531,2528,37369,36200,1
2753536,2016,38793,36632,1
2753541,1904,43658,42138,1
2753546,2368,42906,39049,1
2753551,2160,37337,36921,1
2753556,3344,35368,37161,1
2753561,2192,41066,44106,1
2753566,3136,45131,40281,1
2753571,1824,38137,34040,1
2753576,2064,37913,38441,1
2753581,2576,45931,40553,1
2753586,3136,43354,41386,1
2753591,3872,39129,35656,1
2753596,3056,36088,35496,1
2753601,2592,40009,39881,1
2753606,2656,45851,39609,1
2753611,1952,37961,37113,1
2753616,2160,39465,35432,1
2753621,2400,43402,42554,1
2753626,2400,42570,39961,1
2753631,1920,38137,34392,1
2753636,3216,35768,36296,1
2753641,2560,40185,41882,1
2753646,2240,43226,44490,1
2753651,2160,38201,36760,1
2753656,1904,41274,33560,1
2753661,1648,43690,41018,1
2753666,1936,44730,38057,1
2753671,2064,37417,38121,1
2753676,4321,34296,37513,1
2753681,1936,40665,42218,1
2753688,2592,41562,36664,1
2753693,1744,36680,33544,1
2753698,1856,41546,37801,1
2753703,2688,41946,44506,1
2753708,1920,39961,39993,1
2753713,1936,36648,37945,1
2753718,1808,37737,37033,1
2753723,1776,43242,43114,1
2753728,2912,44474,34408,1
2753733,2144,37913,33640,1
2753738,2000,41850,37673,1
2753743,3120,42954,43050,1
2753748,2096,36969,43626,1
2753753,1680,37017,35176,1
2753758,2272,40089,36472,1
2753763,1696,44330,42906,1
2753768,2432,42090,37865,1
2753773,2560,36552,36408,1
2753778,2112,38489,38489,1
2753783,2160,43578,42314,1
2753788,2048,40633,38633,1
2753793,2240,36921,33544,1
2753798,1744,39321,38089,1
2753803,1872,44282,44058,1
2753808,2736,41626,39465,1
2753813,2048,36905,34264,1
2753818,2352,41514,38393,1
2753823,2448,44858,38953,1
2753828,2960,39065,37657,1
2753833,1888,36296,35464,1
2753838,1728,43162,38521,1
2753843,1808,46107,42042,1
2753848,5441,44378,38089,1
2753853,7665,33496,35304,1
2753858,2208,40569,38825,1
2753863,2144,42762,43978,1
2753868,2144,41082,38601,1
2753873,1520,37257,33704,1
2753913,2000,32711,36504,1
2753918,2448,43354,29815,1
2753923,2064,50684,40521,1
2753928,2384,39913,40121,1
2753933,2192,34536,35752,1
2753938,1920,36376,42874,1
2753943,1808,46779,39129,1
2753948,1792,38777,41322,1
2753953,1888,32023,39289,1
2753958,1552,40745,37225,1
2753963,3552,51868,38217,1
2753968,1920,41082,37001,1
2753973,2848,37961,30343,1
2753978,5969,38905,36200,1
2753983,2144,43466,45819,1
2753988,3168,38569,41610,1
2753993,2576,34344,35688,1
2753998,1728,40489,36472,1
2754003,1920,49964,36552,1
2754008,2496,37177,43242,1
2754013,3488,34472,36152,1
2754018,3264,39369,39849,1
2754023,3744,44234,43274,1
2754028,8546,30199,41194,1
2754033,5377,38313,36584,1
2754038,1408,40345,39465,1
2754043,1824,49372,38969,1
2754048,3088,39433,36824,1
2754053,2240,39753,30247,1
2754058,1488,40153,38809,1
2754063,2336,43898,42810,1
2754068,2080,42746,38985,1
2754073,2336,35368,34136,1
2754078,1456,39001,38041,1
2754083,2048,45195,42794,1
2754088,2016,39945,38953,1
2754093,2400,39081,33464,1
2754098,1776,41898,37865,1
2754105,1632,42506,42042,1
2754110,1840,39081,37497,1
2754115,1600,36985,34744,1
2754120,1648,40073,37705,1
2754125,1680,42266,40713,1
2754130,1824,39097,39961,1
2754135,1744,35720,33832,1
2754140,1568,40041,38505,1
2754145,1776,44618,41722,1
2754150,2208,40153,41754,1
2754155,1936,32519,38089,1
2754160,1968,39545,37097,1
2754165,1808,41994,44058,1
2754170,1856,40009,41210,1
2754175,1936,34024,37321,1
2754180,1952,34664,44554,1
2754185,2352,42314,44378,1
2754190,2000,39497,40169,1
2754195,1856,39593,34024,1
2754200,1920,40857,37881,1
2754205,1936,43498,42746,1
2754210,1552,42954,37785,1
2754215,2176,36504,35448,1
2754220,1920,39673,38713,1
2754225,1936,44858,41994,1
2754230,1552,38665,39401,1
2754235,1904,35144,36104,1
2754240,1952,37913,41994,1
2754245,1920,42826,42906,1
2754250,1744,41130,38809,1
2754255,2240,32151,40185,1
2754260,1824,40009,38089,1
2754265,2000,45771,42874,1
2754270,1888,36328,41514,1
2754275,1904,36040,36072,1
2754280,1776,37897,39785,1
2754285,2448,39417,45755,1
2754292,1664,33576,37449,1
2754297,1824,41354,32936,1
2754302,1760,45771,37689,1
2754307,1888,43226,41482,1
2754312,1712,38105,35848,1
2754317,2240,38153,34648,1
2754322,1824,41018,42330,1
2754327,1760,36680,45403,1
2754332,2128,35016,38873,1
2754337,1664,38505,36953,1
2754342,2016,37209,48203,1
2754347,1744,37225,44122,1
2754352,2080,38889,35624,1
2754357,1808,35096,37433,1
2754362,1920,43306,42842,1
2754367,1824,42538,41450,1
2754372,1920,33448,40457,1
2754377,1680,41386,32615,1
2754382,2128,35800,47403,1
2754387,1680,45050,42026,1
2754392,1760,41226,32423,1
2754397,1856,36104,38761,1
2754402,2032,39433,44186,1
2754407,1840,39785,42650,1
2754412,2944,41674,33608,1
2754417,2336,35096,41402,1
2754422,2320,44842,37545,1
2754427,2560,49932,38953,1
2754432,1728,41050,32215,1
2754437,1936,32952,39385,1
2754442,2176,39817,43258,1
2754447,1776,37145,46235,1
2754452,2064,32984,42106,1
2754457,2064,35992,34744,1
2754462,2336,44266,38377,1
2754467,1920,38841,47003,1
2754472,2144,36504,37065,1
2754477,1728,37161,36824,1
2754484,2480,45627,34648,1
2754489,2176,43866,34808,1
2754494,1712,30119,42090,1
2754499,1840,39273,39433,1
2754504,2256,37385,51692,1
2754509,1984,35784,42842,1
2754514,1872,33048,37465,1
2754519,2016,42394,34936,1
2754524,1696,40617,44810,1
2754529,2128,37065,44442,1
2754534,1936,38297,30343,1
2754539,2336,39497,38377,1
2754544,1648,44538,39177,1
2754549,2144,37593,43114,1
2754554,1872,36584,34056,1
2754559,2048,42794,34296,1
2754564,1712,40665,46427,1
2754569,1728,40425,40841,1
2754574,1680,37049,34104,1
2754579,2176,37881,41162,1
2754584,1584,44458,42538,1
2754589,1872,38377,44378,1
2754594,1616,36056,31975,1
2754599,1824,39257,37289,1
2754604,1824,41658,47979,1
2754609,2112,37673,44010,1
2754614,1952,38313,34984,1
2754619,1936,41834,34744,1
2754624,1856,38649,49500,1
2754629,2048,39017,38057,1
2754634,1728,35848,37641,1
2754639,2368,40089,37561,1
2754644,2016,46363,40233,1
2754649,1840,40105,38889,1
2754654,2080,36568,33448,1
2754659,1840,34936,45067,1
2754664,1552,46459,37545,1
2754669,1952,40809,37577,1
2754710,2112,35016,43690,1
2754715,2336,31959,40345,1
2754720,1584,43850,31783,1
2754725,2352,41530,47723,1
2754730,1664,40537,39081,1
2754735,1616,34536,33864,1
2754740,2416,41146,36969,1
2754745,1872,45515,41354,1
2754750,1728,39145,37161,1
2754755,1760,33128,35816,1
2754760,1744,42042,35064,1
2754765,1584,49051,36616,1
2754770,1472,42394,34616,1
2754775,1824,36056,35544,1
2754780,2400,38921,39801,1
2754785,2000,43866,43338,1
2754790,1696,39801,38361,1
2754795,2432,32519,38457,1
2754800,2064,39593,37017,1
2754805,1728,45851,41866,1
2754810,1824,41162,37065,1
2754815,1792,36024,31639,1
2754820,2656,40505,36344,1
2754825,2672,43514,41866,1
2754830,1728,40217,35976,1
2754835,1872,37977,31047,1
2754840,1712,38617,40889,1
2754845,1872,42810,46171,1
2754850,1888,38345,41098,1
2754855,1696,34184,35384,1
2754860,1680,38473,40265,1
2754865,2080,42394,45403,1
2754870,2064,40986,40777,1
2754875,2064,33560,38345,1
2754880,1904,38473,41514,1
2754885,1840,43162,43226,1
2754890,2208,40681,37481,1
2754895,1808,34408,35880,1
2754902,2048,39017,41130,1
2754907,2432,42970,43866,1
2754912,1856,38745,37545,1
2754917,2128,34264,38105,1
2754922,2144,39401,41866,1
2754927,2048,43914,43306,1
2754932,2224,40121,38185,1
2754937,3728,36776,36568,1
2754942,2240,39673,39945,1
2754947,2144,43530,43386,1
2754952,2480,36776,41562,1
2754957,2160,36953,34648,1
2754962,2624,38233,40361,1
2754967,2544,42250,45371,1
2754972,2096,40073,37273,1
2754977,2944,37593,34792,1
2754982,2544,37417,39865,1
2754987,2928,45499,43162,1
2754992,2176,41594,37961,1
2754997,1968,32567,39337,1
2755002,2048,38777,41914,1
2755007,2464,40169,47163,1
2755012,3376,37337,39273,1
2755017,1952,32391,38585,1
2755022,2960,35288,42810,1
2755027,4737,46075,43274,1
2755032,4401,42970,38169,1
2755037,1824,34280,36440,1
2755042,1952,37513,40649,1
2755047,2096,41642,42794,1
2755052,2992,37609,42890,1
2755057,5089,36792,35512,1
2755062,2368,38153,41466,1
2755067,1680,46235,38297,1
2755072,2208,37049,43130,1
2755077,1888,35880,34968,1
2755082,1936,39129,39705,1
2755087,3248,46123,43114,1
2755094,2368,35400,36728,1
2755099,2096,33752,38633,1
2755104,3424,40329,42234,1
2755109,1984,41242,41338,1
2755114,2192,34344,40249,1
2755119,2256,35592,39321,1
2755124,2816,41562,39273,1
2755129,3040,44986,38569,1
2755134,2352,36296,37545,1
2755139,3568,39561,37161,1
2755144,2032,39145,43178,1
2755149,1936,39785,41626,1
2755154,2320,36520,36953,1
2755159,2272,35688,37369,1
2755164,3312,39641,44586,1
2755169,1952,40025,41706,1
2755174,2320,37417,35640,1
2755179,2784,38873,35032,1
2755184,2992,39481,43290,1
2755189,2336,40777,41706,1
2755194,2144,35864,37545,1
2755199,1808,36712,37577,1
2755204,1968,40233,43354,1
2755209,1824,41898,41514,1
2755214,1952,36760,37001,1
2755219,2176,35096,37529,1
2755224,3072,43322,43370,1
2755229,1968,41498,42650,1
2755234,1920,37145,37865,1
2755239,2064,35336,38377,1
2755244,2224,40249,43322,1
2755249,2336,41498,40345,1
2755254,2592,32679,40265,1
2755259,4225,40841,35336,1
2755264,2064,39209,43018,1
2755269,2240,38969,43322,1
2755274,2896,36168,40313,1
2755279,4064,32359,40201,1
2755286,3552,42730,44330,1
2755291,4705,43274,38217,1
2755296,2448,33336,33912,1
2755301,3264,36328,41098,1
2755306,2576,43274,45531,1
2755311,5057,35096,40313,1
2755316,3600,34504,32151,1
2755321,4897,37417,39513,1
2755326,2480,43418,44282,1
2755331,2272,38009,40281,1
2755336,2272,35400,35000,1
2755341,2240,39545,40745,1
2755346,2128,44314,45419,1
2755351,1856,40473,38073,1
2755356,1856,34200,35144,1
2755361,2048,38025,39561,1
2755366,2640,43898,44762,1
2755371,4241,43658,38361,1
2755376,2576,32984,36937,1
2755381,2960,37673,39833,1
2755386,2320,43962,44650,1
2755391,2000,39113,38889,1
2755396,2224,34904,36792,1
2755401,2096,38201,39817,1
2755406,2496,44458,44538,1
2755411,3616,42090,38937,1
2755416,2336,34472,35416,1
2755421,2256,38761,40121,1
2755426,2080,45627,40217,1
2755431,2272,38329,40633,1
2755436,1888,34776,35240,1
2755441,2384,38969,39305,1
2755446,2720,43930,44186,1
2755451,2448,42538,40473,1
2755456,2432,36600,35256,1
2755461,2128,38649,39113,1
2755466,2288,43530,43482,1
2755471,2144,39465,37993,1
2755511,2288,38985,39417,1
2755516,2464,33128,38041,1
2755521,2320,40361,37769,1
2755526,2192,45355,41178,1
2755531,4225,44250,38185,1
2755536,2384,35384,35224,1
2755541,3312,37609,39897,1
2755546,2016,44138,43066,1
2755551,1984,43626,38201,1
2755556,2128,36632,35176,1
2755561,2480,40121,37209,1
2755566,2960,41354,45883,1
2755571,2304,43210,38089,1
2755576,2224,36792,33752,1
2755581,4353,37657,37369,1
2755586,2832,44090,43226,1
2755591,2416,42026,40441,1
2755596,2416,36632,35096,1
2755601,2064,38153,39257,1
2755606,2224,44554,40841,1
2755611,1936,40793,37577,1
2755616,2176,36520,35784,1
2755621,2528,37657,39833,1
2755626,3120,43034,43882,1
2755631,2288,41146,41178,1
2755636,2944,35976,35304,1
2755641,3424,37369,37097,1
2755646,2320,44138,41690,1
2755651,2368,41642,40489,1
2755656,2032,33592,38601,1
2755661,2480,37929,37081,1
2755666,2368,42586,43338,1
2755671,2432,41258,41322,1
2755676,2160,37913,34568,1
2755681,2544,39193,37417,1
2755686,2208,43370,43322,1
2755691,2288,40777,41610,1
2755696,2368,35368,37369,1
2755703,2800,39465,39209,1
2755708,2160,44298,41130,1
2755713,2304,35720,43658,1
2755718,1872,37689,34584,1
2755723,2352,39881,39897,1
2755728,1920,43226,43658,1
2755733,1888,39305,38441,1
2755738,2624,36200,35432,1
2755743,2816,40729,37401,1
2755748,2384,44554,41258,1
2755753,2128,40185,38505,1
2755758,3280,35768,38233,1
2755763,2432,39321,39529,1
2755768,2240,46475,39929,1
2755773,2544,41818,35480,1
2755778,1920,36632,34520,1
2755783,2080,40970,40537,1
2755788,2064,44106,43786,1
2755793,2128,41690,38505,1
2755798,2352,34552,37017,1
2755803,2336,38665,40473,1
2755808,2832,45050,42474,1
2755813,2240,39913,38265,1
2755818,1984,37017,34536,1
2755823,2560,40377,39353,1
2755828,2048,43434,44490,1
2755833,6641,41722,40745,1
2755838,2224,35944,34696,1
2755843,4016,42858,38361,1
2755848,2480,44922,41882,1
2755853,2064,38697,39017,1
2755858,2064,36840,33464,1
2755863,3360,42458,37753,1
2755868,2800,45723,39721,1
2755873,2624,39945,40009,1
2755878,2320,37705,35256,1
2755883,2384,41562,37769,1
2755890,3504,42218,40617,1
2755895,2672,32135,41578,1
2755900,3056,33864,36520,1
2755905,2640,41642,42250,1
2755910,2928,41466,48219,1
2755915,2512,36600,41194,1
2755920,2400,35672,38265,1
2755925,2640,40777,38217,1
2755930,2928,44858,39673,1
2755935,2368,39913,33800,1
2755940,2576,30135,44794,1
2755945,2704,40185,43114,1
2755950,2784,42858,43626,1
2755955,2992,40137,36744,1
2755960,4177,31303,40970,1
2755965,2688,40153,40777,1
2755970,2896,43130,42554,1
2755975,3040,32087,45899,1
2755980,3344,31671,41290,1
2755985,2912,36392,48715,1
2755990,2832,44762,36472,1
2755995,2672,39273,35768,1
2756000,2656,37017,35832,1
2756005,4673,42650,42650,1
2756010,2480,42826,42346,1
2756015,3104,37193,40473,1
2756020,2320,37433,35128,1
2756025,3376,45691,37689,1
2756030,4337,41866,41738,1
2756035,3632,37977,42138,1
2756040,3312,33416,37193,1
2756045,2720,42474,37849,1
2756050,2976,43978,42122,1
2756055,2560,39401,36296,1
2756060,2848,38313,32087,1
2756065,3040,35656,48491,1
2756070,3648,37593,49516,1
2756075,2976,36776,40873,1
2756082,4449,37065,38665,1
2756087,2560,40265,40105,1
2756092,2464,35736,45611,1
2756097,6257,35016,42074,1
2756102,2608,39449,35000,1
2756107,2528,47675,37193,1
2756112,3376,41050,39209,1
2756117,2944,36568,36536,1
2756122,5489,38329,37433,1
2756127,12899,44346,45627,1
2756132,2944,40297,41018,1
2756137,4177,37849,38649,1
2756142,2432,38537,37289,1
2756147,2800,44842,40649,1
2756152,4865,41690,40585,1
2756157,3040,38361,35688,1
2756162,2592,39049,37161,1
2756167,2720,41258,44106,1
2756172,2320,41498,40361,1
2756177,2992,35640,37929,1
2756182,2944,39529,37049,1
2756187,2672,45531,38537,1
2756192,3424,42378,38841,1
2756197,2928,37081,37673,1
2756202,3200,35576,38041,1
2756207,3264,42554,40921,1
2756212,2544,40681,40473,1
2756217,11442,43050,34488,1
2756222,2528,39577,36232,1
2756227,3472,42602,43210,1
2756232,5105,41658,39641,1
2756237,5073,37897,36696,1
2756242,4016,38281,37737,1
2756247,5329,41018,40041,1
2756252,3616,42042,40585,1
2756257,4465,38345,36152,1
2756262,2624,39321,36296,1
2756267,2720,42906,41450,1
2756308,2560,44170,42042,1
2756313,2480,41178,39961,1
2756318,2720,37977,36488,1
2756323,2976,40297,38905,1
2756328,2064,45275,40697,1
2756333,2304,40009,39961,1
2756338,2992,36840,34840,1
2756343,4080,41194,39321,1
2756348,2528,44314,41002,1
2756353,2928,42170,41498,1
2756358,5873,39065,36664,1
2756363,2496,39865,37769,1
2756368,3296,44170,41818,1
2756373,2848,41562,38521,1
2756378,4833,39529,36200,1
2756383,3008,41642,37721,1
2756388,2528,45819,42154,1
2756393,2576,43834,43034,1
2756398,3088,38057,37017,1
2756403,3968,42346,34536,1
2756408,3376,44218,41018,1
2756413,2400,40841,38745,1
2756418,2768,37337,34488,1
2756423,3872,39993,38601,1
2756428,2096,46635,38681,1
2756433,2880,39433,42634,1
2756438,2432,35064,37593,1
2756443,2768,40329,37625,1
2756448,2336,43770,39913,1
2756453,3056,40201,42458,1
2756458,2544,37977,35176,1
2756463,2784,36808,41322,1
2756468,4305,43642,41674,1
2756473,2672,41418,39737,1
2756478,3264,36712,34360,1
2756483,2688,39225,39113,1
2756488,2384,43914,40841,1
2756493,2848,42458,39785,1
2756500,2240,35272,35112,1
2756505,2240,41930,34568,1
2756510,2400,44490,43818,1
2756515,2592,39257,37977,1
2756520,3392,33560,41482,1
2756525,2640,37273,44234,1
2756530,2912,41898,44730,1
2756535,2480,37977,40409,1
2756540,2736,36392,33976,1
2756545,2608,39593,41706,1
2756550,2560,43450,43418,1
2756555,3616,36056,44714,1
2756560,5041,35880,37385,1
2756565,2592,39673,39961,1
2756570,3360,41610,44618,1
2756575,1952,38377,40857,1
2756580,2896,38809,29367,1
2756585,2576,39625,43146,1
2756590,2592,43210,44170,1
2756595,2560,40089,35080,1
2756600,2592,36008,37081,1
2756605,3280,37977,41722,1
2756610,3568,42762,43130,1
2756615,2576,40377,33624,1
2756620,2912,35800,35656,1
2756625,2512,40713,38569,1
2756630,3296,41866,45947,1
2756635,2976,42218,33304,1
2756640,3424,35752,36937,1
2756645,11362,42858,45291,1
2756650,4273,42426,43866,1
2756655,4673,38137,43466,1
2756660,2624,33896,38969,1
2756665,2640,41162,36921,1
2756670,2944,43754,46539,1
2756675,2928,35944,43738,1
2756680,3120,39065,30951,1
2756685,2560,37513,42458,1
2756692,2752,41018,41882,1
2756697,2384,40265,29911,1
2756702,2592,37993,34472,1
2756707,2736,40745,45787,1
2756712,2592,44714,34680,1
2756717,9618,39145,42666,1
2756722,3584,34344,37609,1
2756727,3104,42714,38441,1
2756732,2768,42330,41898,1
2756737,2672,36873,37065,1
2756742,2848,36200,36136,1
2756747,2560,41562,42266,1
2756752,2624,43482,39849,1
2756757,9346,39897,39577,1
2756762,2352,36808,36905,1
2756767,3216,42490,40105,1
2756772,3280,43658,41066,1
2756777,3056,35816,38489,1
2756782,2560,36760,33576,1
2756787,2848,40569,40585,1
2756792,3088,42490,41882,1
2756797,9650,39993,37977,1
2756802,2816,35912,34024,1
2756807,2880,43898,41450,1
2756812,4369,44090,40025,1
2756817,4945,38809,39033,1
2756822,2816,37449,35688,1
2756827,2768,41690,41194,1
2756832,3824,41738,41722,1
2756837,11794,37801,41018,1
2756842,4000,37097,33912,1
2756847,2656,41802,35960,1
2756852,3056,42458,42042,1
2756857,3408,37897,38281,1
2756862,3024,36392,35000,1
2756867,2976,42346,38585,1
2756872,3344,44602,39737,1
2756877,7873,41034,36328,1
2756884,2656,38601,36776,1
2756889,3312,43514,40697,1
2756894,2912,39881,40105,1
2756899,3216,35672,38345,1
2756904,2960,38297,38025,1
2756909,3040,43402,43258,1
2756914,3088,36168,45483,1
2756919,3296,36408,32856,1
2756924,3104,37049,43274,1
2756929,3232,42522,42250,1
2756934,3184,40665,41770,1
2756939,3536,33496,38969,1
2756944,2608,37705,39209,1
2756949,3184,42570,43530,1
2756954,2704,44202,35848,1
2756959,4913,36600,38729,1
2756964,3200,34568,40393,1
2756969,2960,42906,41882,1
2756974,2608,39289,40153,1
2756979,6625,39273,32647,1
2756984,2864,36040,40393,1
2756989,3248,41722,42266,1
2756994,2912,41482,37961,1
2756999,2960,33560,36440,1
2757004,3760,37625,38873,1
2757009,3200,42058,43082,1
2757014,3008,40249,42330,1
2757019,3520,37641,34984,1
2757024,2864,36905,38329,1
2757029,3072,40089,44362,1
2757034,4080,40857,39017,1
2757039,4417,36504,35448,1
2757044,3648,37817,37449,1
2757049,2768,42234,41786,1
2757054,2944,40857,38089,1
2757059,2592,35768,38649,1
2757064,2864,37433,39177,1
2757069,2576,42890,41546,1
2757111,3840,42426,40025,1
2757116,3792,40297,36344,1
2757121,2768,36408,34584,1
2757126,3680,40201,34856,1
2757131,2896,43050,41706,1
2757136,2752,38873,37273,1
2757141,2736,36104,33912,1
2757146,2816,40345,36312,1
2757151,7777,45531,44634,1
2757156,3312,39113,37977,1
2757161,2480,35640,35112,1
2757166,2368,40905,38329,1
2757171,6033,45147,40889,1
2757176,2880,39849,36873,1
2757181,3104,36216,35512,1
2757186,2704,41114,37241,1
2757191,3280,43530,41690,1
2757196,2880,38921,40217,1
2757201,3632,36136,33064,1
2757206,5889,39113,37385,1
2757211,2960,44250,40041,1
2757216,2848,38217,36824,1
2757221,3456,35528,36969,1
2757226,2976,38105,42138,1
2757231,2816,45243,38473,1
2757236,3296,40393,38297,1
2757241,2800,35736,36216,1
2757246,2624,40793,37401,1
2757251,8290,46027,46315,1
2757256,2672,40457,36632,1
2757261,2720,36360,33832,1
2757266,2544,40970,38409,1
2757271,2544,43930,41034,1
2757276,2672,40073,38537,1
2757281,2608,36504,33160,1
2757286,2880,41130,35832,1
2757291,3376,44474,45531,1
2757298,2176,37593,35640,1
2757303,2512,35464,36520,1
2757308,1952,42970,39129,1
2757313,3360,43082,43898,1
2757318,2992,37865,38057,1
2757323,4449,38153,34856,1
2757328,2288,41882,40281,1
2757333,4641,42090,41050,1
2757338,3328,40793,37833,1
2757343,2352,35672,37049,1
2757348,2736,42042,39929,1
2757353,2928,43866,41146,1
2757358,3648,38953,36985,1
2757363,2464,36312,35384,1
2757368,2160,42522,40970,1
2757373,3248,43242,41530,1
2757378,2464,39705,37481,1
2757383,2992,37689,36280,1
2757388,3568,42634,40425,1
2757393,3152,42010,42970,1
2757398,3712,39337,36584,1
2757403,2800,36648,37673,1
2757408,5329,40169,38025,1
2757413,3392,43626,41690,1
2757418,2816,40121,37001,1
2757423,4000,37545,35608,1
2757428,2624,40793,38569,1
2757433,4353,43290,43626,1
2757438,5249,40777,38745,1
2757443,3696,40073,32311,1
2757448,2240,41322,37561,1
2757453,2576,42810,45243,1
2757458,2560,41114,36873,1
2757463,3120,37625,35128,1
2757468,2816,40473,40553,1
2757473,4641,40986,43514,1
2757478,2464,40409,38425,1
2757483,3232,38521,33528,1
2757490,3056,41466,41178,1
2757495,2416,40841,37609,1
2757500,2816,36600,35128,1
2757505,3136,36840,41850,1
2757510,2720,39641,44570,1
2757515,2912,39545,41578,1
2757520,5809,34344,39849,1
2757525,3408,36488,38025,1
2757530,3024,40681,44426,1
2757535,2784,40201,41962,1
2757540,2880,37417,38137,1
2757545,3344,35752,41754,1
2757550,2784,41658,42042,1
2757555,3136,39897,43178,1
2757560,2880,35752,37945,1
2757565,2880,35848,40073,1
2757570,2784,40345,42970,1
2757575,2720,40617,40521,1
2757580,8274,39145,38009,1
2757585,2720,39145,36696,1
2757590,4177,42138,43290,1
2757595,3424,39193,47211,1
2757600,3728,35496,40793,1
2757605,2704,44970,30375,1
2757610,3200,40761,44986,1
2757615,2912,40249,42202,1
2757620,3520,36520,38729,1
2757625,3152,38217,40489,1
2757630,4289,40569,42746,1
2757635,3264,39801,45419,1
2757640,3376,36456,39721,1
2757645,3552,39273,34392,1
2757650,6481,44602,36040,1
2757655,3056,39945,44234,1
2757660,3536,34664,40713,1
2757665,2896,39225,37337,1
2757670,2720,41786,41658,1
2757675,3776,39705,46139,1
2757682,3728,33016,35816,1
2757687,3072,38969,36536,1
2757692,3024,41034,45451,1
2757697,2608,38521,39721,1
2757702,2784,35928,35656,1
2757707,2576,39625,40313,1
2757712,2944,48139,37081,1
2757717,2528,39065,39337,1
2757722,3248,35880,35016,1
2757727,9202,38857,34136,1
2757732,26646,51612,45611,1
2757737,9266,37545,35576,1
2757742,2944,33816,40121,1
2757747,2576,37129,41866,1
2757752,3248,44026,39881,1
2757757,4257,41130,40009,1
2757762,3280,35144,36824,1
2757767,7185,40809,39481,1
2757772,2880,43706,42122,1
2757777,3280,39657,39833,1
2757782,2384,35944,34616,1
2757787,4433,40025,41898,1
2757792,2832,42858,41242,1
2757797,11554,40889,43514,1
2757802,3776,34968,35640,1
2757807,3488,39625,35320,1
2757812,2752,39977,50652,1
2757817,2544,40121,35368,1
2757822,2544,37481,36568,1
2757827,2768,43306,34184,1
2757832,15491,41290,35688,1
2757837,2496,38393,41002,1
2757842,3088,35800,37193,1
2757847,2912,39161,36552,1
2757852,3232,43850,42122,1
2757857,3328,39593,36792,1
2757862,2864,34728,35992,1
2757867,2288,42058,36344,1
2757908,3056,40809,37657,1
2757913,5569,44218,43722,1
2757918,3072,39561,36889,1
2757923,3792,35720,37689,1
2757928,2912,39321,38025,1
2757933,2976,44746,39321,1
2757938,2432,42474,35800,1
2757943,3088,37129,34440,1
2757948,2288,40857,37913,1
2757953,3136,43114,43706,1
2757958,5777,41898,39145,1
2757963,2816,35432,36376,1
2757968,3824,39977,38121,1
2757973,3744,43866,37609,1
2757978,4113,43498,37001,1
2757983,2576,38297,35640,1
2757988,2320,39721,40713,1
2757993,2896,42778,43818,1
2757998,2288,40537,38329,1
2758003,3120,37769,34184,1
2758008,2704,40809,38457,1
2758013,3168,41050,44682,1
2758018,2560,40537,35992,1
2758023,3344,39993,32551,1
2758028,2656,39353,41050,1
2758033,2576,40681,45947,1
2758038,2384,39753,38185,1
2758043,3008,40441,32327,1
2758048,2432,45147,30311,1
2758053,2864,43434,40970,1
2758058,2608,41034,35384,1
2758063,2448,36440,36824,1
2758068,3136,39865,42106,1
2758073,2960,41978,44778,1
2758078,2304,41978,34584,1
2758083,2320,38745,32968,1
2758088,2560,41274,37753,1
2758093,2720,43210,40761,1
2758100,3456,35624,37385,1
2758105,2976,37625,34952,1
2758110,2704,40089,41066,1
2758115,3392,42970,39977,1
2758120,3440,38297,36104,1
2758125,2912,35720,35544,1
2758130,3120,39961,40473,1
2758135,2464,42602,42058,1
2758140,3600,36905,38201,1
2758145,2848,36664,36344,1
2758150,3024,41178,41898,1
2758155,2496,43178,40425,1
2758160,3040,36008,42570,1
2758165,4177,35112,39625,1
2758170,4689,40986,41162,1
2758175,3312,41706,44890,1
2758180,2704,36696,39193,1
2758185,5505,34120,37257,1
2758190,5665,41626,40233,1
2758195,2880,42906,42298,1
2758200,4737,36424,37721,1
2758205,2896,36728,36200,1
2758210,2672,41498,39401,1
2758215,3904,41306,43178,1
2758220,3536,36969,39289,1
2758225,2912,37129,33160,1
2758230,2512,41466,42714,1
2758235,3616,42698,41706,1
2758240,4449,36120,38265,1
2758245,5777,34760,38393,1
2758250,2880,41370,41290,1
2758255,2976,41930,43498,1
2758260,2720,36921,39401,1
2758265,3152,35688,36536,1
2758270,3040,41482,41802,1
2758275,5537,41690,42970,1
2758280,6625,36104,37785,1
2758285,2736,35240,36488,1
2758292,23045,47339,45387,1
2758297,3184,40489,38409,1
2758302,2960,36873,34632,1
2758307,2832,37513,36905,1
2758312,2960,41946,40137,1
2758317,2224,42058,38521,1
2758322,2576,34648,37577,1
2758327,2528,40009,36616,1
2758332,3040,41834,40553,1
2758337,2784,40281,39657,1
2758342,2672,38169,35336,1
2758347,2592,37897,37481,1
2758352,4961,42266,47227,1
2758357,2272,42218,38969,1
2758362,3280,35368,35096,1
2758367,2448,37577,38153,1
2758372,2416,41178,39561,1
2758377,2736,38937,42074,1
2758382,2560,38297,34936,1
2758387,2848,35960,41098,1
2758392,3920,42106,42554,1
2758397,2544,40665,39257,1
2758402,2864,34760,38057,1
2758407,4833,36584,38505,1
2758412,2720,41418,38889,1
2758417,2592,40617,39865,1
2758422,2400,41114,28166,1
2758427,2272,38649,36040,1
2758432,5105,41770,42250,1
2758437,2448,40921,42346,1
2758442,2688,36840,35704,1
2758447,2272,37129,34968,1
2758452,2176,42122,41034,1
2758457,2608,40281,39833,1
2758462,4705,36440,40553,1
2758467,3056,37177,37593,1
2758472,3616,40505,41370,1
2758479,4865,37753,41274,1
2758484,3712,34408,34888,1
2758489,2768,39689,37065,1
2758494,2352,42186,42234,1
2758499,2432,37881,39545,1
2758504,2880,33112,36969,1
2758509,3696,37737,41434,1
2758514,2432,42282,44858,1
2758519,17412,33320,38505,1
2758524,3744,34088,35480,1
2758529,2976,38041,40057,1
2758534,2272,42874,41562,1
2758539,2880,38713,37129,1
2758544,2608,34280,36856,1
2758549,3104,41034,36616,1
2758554,3168,41514,46443,1
2758559,2016,38569,36664,1
2758564,2992,35528,32952,1
2758569,2624,38521,37593,1
2758574,3280,42842,42218,1
2758579,3232,38969,40777,1
2758584,10802,41434,37193,1
2758589,3568,37721,39401,1
2758594,2752,44474,43450,1
2758599,14739,37929,47179,1
2758604,2720,35384,33112,1
2758609,3056,39577,36216,1
2758614,2224,43530,41066,1
2758619,3088,37353,37353,1
2758624,2512,33816,36616,1
2758629,2784,39561,36248,1
2758634,3376,42906,43290,1
2758639,2608,34600,46827,1
2758644,4353,39721,35320,1
2758649,2448,39049,39529,1
2758654,10482,38665,39225,1
2758659,2672,40089,37801,1
2758664,9698,40905,38265,1
2758704,2688,33192,34888,1
2758709,3392,36488,42234,1
2758714,2576,42602,45451,1
2758719,3904,40041,39721,1
2758724,2896,33736,37209,1
2758729,2736,38969,34920,1
2758734,2736,43994,40425,1
2758739,2400,37433,41162,1
2758744,2416,32487,39497,1
2758749,2528,38281,40601,1
2758754,3008,41594,45835,1
2758759,3392,38041,39177,1
2758764,2784,32888,37209,1
2758769,3552,39081,39961,1
2758774,3072,42602,41658,1
2758779,4048,35032,42794,1
2758784,3408,33448,36840,1
2758789,2464,36840,41098,1
2758794,3472,42074,44346,1
2758799,2896,36712,38201,1
2758804,2816,33176,36856,1
2758809,2384,37497,41258,1
2758814,2976,43578,42506,1
2758819,2624,38713,41098,1
2758824,2496,35112,32103,1
2758829,2400,37785,38233,1
2758834,2608,41546,48075,1
2758839,2528,38777,40249,1
2758844,2608,34600,37177,1
2758849,2576,37433,41194,1
2758854,2464,41514,43706,1
2758859,2304,39433,36040,1
2758864,2400,33480,38345,1
2758869,2640,40649,37097,1
2758874,2448,42858,43018,1
2758879,2768,40825,38361,1
2758884,2080,35496,33928,1
2758889,2512,37881,41210,1
2758896,3056,41690,42586,1
2758901,3312,38057,40121,1
2758906,3264,35224,34248,1
2758911,11346,46027,42314,1
2758916,2752,42282,41306,1
2758921,3104,39017,37529,1
2758926,2544,37913,33800,1
2758937,4097,41802,44458,1
2758942,2496,38601,35016,1
2758947,4769,37017,39065,1
2758952,2336,42458,39513,1
2758957,3488,41706,41322,1
2758962,9986,32471,32503,1
2758967,4337,35000,34776,1
2758972,2512,40329,40777,1
2758977,2768,42234,40905,1
2758982,2496,35576,40249,1
2758987,19060,42506,36296,1
2758992,12499,44250,44266,1
2758997,4529,43898,39945,1
2759002,6641,38937,38169,1
2759007,7249,38105,35512,1
2759012,9490,44874,40089,1
2759017,3232,41786,42858,1
2759022,2800,38393,35832,1
2759027,4016,39961,34904,1
2759032,2800,42842,37257,1
2759037,4385,42506,43690,1
2759042,11554,43882,35768,1
2759047,4048,38681,35144,1
2759052,2352,44650,39897,1
2759057,1904,42378,42762,1
2759062,2064,38889,37353,1
2759067,6417,37513,37033,1
2759072,8097,42042,39145,1
2759077,4817,42426,42458,1
2759082,7121,42522,35768,1
2759087,5137,34488,36600,1
2759094,24005,35032,40393,1
2759099,5169,38585,40169,1
2759104,22693,44522,37977,1
2759109,8482,38313,40441,1
2759114,6273,42474,45515,1
2759119,7713,41898,38953,1
2759124,7009,38233,35752,1
2759129,7505,36440,39737,1
2759134,19540,34088,44058,1
2759139,3824,41066,37545,1
2759144,22421,46363,34520,1
2759149,7585,41114,34696,1
2759154,8690,43818,42714,1
2759159,6401,41866,39817,1
2759164,6513,38969,33704,1
2759169,6449,40025,35176,1
2759174,21829,33768,45275,1
2759179,2848,40377,40089,1
2759184,23173,46411,33368,1
2759189,8402,41034,37161,1
2759194,6097,41450,44842,1
2759199,4481,41194,41162,1
2759204,10898,40697,36536,1
2759209,9186,40297,40473,1
2759214,18132,35432,42522,1
2759219,5889,39529,37721,1
2759224,24453,42394,40521,1
2759229,8706,39897,37129,1
2759234,7169,44426,43338,1
2759239,10658,41754,45547,1
2759244,10914,36120,33384,1
2759249,5057,37625,36921,1
2759254,2384,41962,40297,1
2759259,2688,40313,39049,1
2759264,27878,44202,37737,1
2759269,10834,41418,37593,1
2759274,8290,45419,40970,1
2759281,9170,41562,37065,1
2759286,4193,36856,32455,1
2759291,7265,40185,41514,1
2759296,8354,41466,42186,1
2759301,3696,37273,42778,1
2759306,11026,39977,35304,1
2759311,5745,40521,39513,1
2759316,5617,43018,45259,1
2759321,4753,39657,39241,1
2759326,6625,38937,30791,1
2759331,5665,36136,45099,1
2759336,10306,44986,35144,1
2759341,4705,34968,47211,1
2759346,10834,42394,31271,1
2759351,9106,44890,37289,1
2759356,7521,44362,44538,1
2759361,7537,40841,38201,1
2759366,6561,37641,32615,1
2759371,8738,41738,39529,1
2759376,8882,38601,42954,1
2759381,2496,40265,37673,1
2759386,16147,38185,40729,1
2759391,8370,41258,40377,1
2759396,5649,44810,44778,1
2759401,5921,38025,41162,1
2759406,8177,39209,33080,1
2759411,7345,40745,38761,1
2759416,12339,45018,40889,1
2759421,4801,40697,35336,1
2759426,14787,39193,36104,1
2759431,8578,39273,44570,1
2759436,6273,45195,42986,1
2759441,6913,41050,38041,1
2759446,8578,37593,31927,1
2759451,10434,40265,39705,1
2759456,9314,46235,36456,1
2759461,2352,40105,35000,1
2759466,11954,41370,31063,1
2759508,8498,32503,39097,1
2759513,4609,37545,44970,1
2759518,5393,43306,43210,1
2759523,5617,38313,36344,1
2759528,5553,36584,34856,1
2759533,27654,32808,33496,1
2759538,4801,41946,41226,1
2759543,20645,42234,43402,1
2759548,7073,39129,34360,1
2759553,5953,39449,43978,1
2759558,5825,43642,41866,1
2759563,5841,36953,37225,1
2759568,4833,37209,32535,1
2759573,27190,36104,33192,1
2759578,5105,41370,43786,1
2759583,19620,40713,44042,1
2759588,5473,36488,36328,1
2759593,5905,37497,45211,1
2759598,5249,42074,40873,1
2759603,6561,36520,38105,1
2759608,7633,38249,34488,1
2759613,25110,34616,33960,1
2759618,5777,43738,42458,1
2759623,21093,39673,46699,1
2759628,7441,36696,36120,1
2759633,5665,40986,41242,1
2759638,6833,46091,41418,1
2759643,5041,36632,38185,1
2759648,6305,36520,33272,1
2759653,23445,32968,35784,1
2759658,4064,43338,40569,1
2759663,23317,46235,40169,1
2759668,8161,35592,39241,1
2759673,8530,39913,43482,1
2759678,5153,42842,41482,1
2759683,4961,37321,39385,1
2759688,5521,34776,36921,1
2759695,7969,39321,40329,1
2759700,4241,36712,44922,1
2759705,19300,40777,37305,1
2759710,7617,40089,38697,1
2759715,5217,40009,46283,1
2759720,4625,42442,40073,1
2759725,6369,38201,35800,1
2759730,6769,37689,42762,1
2759735,13363,40153,35944,1
2759740,3808,41210,39065,1
2759745,21845,39961,44458,1
2759750,8370,41386,37113,1
2759755,5889,41386,47963,1
2759760,5633,40553,43626,1
2759765,8578,35816,37225,1
2759770,8962,39193,38313,1
2759775,11794,39081,39833,1
2759780,5521,38665,39497,1
2759785,17684,41930,39337,1
2759790,8738,40057,37977,1
2759795,6033,43210,44490,1
2759800,7697,43114,42394,1
2759805,8113,38313,37305,1
2759810,6657,39625,36200,1
2759815,12387,35496,41706,1
2759820,3760,40681,40841,1
2759825,18868,39977,40169,1
2759830,8914,39321,41882,1
2759835,8097,43434,46875,1
2759840,6705,43594,41834,1
2759845,6849,39065,36424,1
2759850,5009,37609,37785,1
2759855,11426,39353,40361,1
2759860,6721,38761,38937,1
2759865,18628,41658,39385,1
2759870,8866,40329,39929,1
2759875,5297,42058,45883,1
2759880,7073,40473,45579,1
2759887,7361,35560,32936,1
2759892,6561,42010,37577,1
2759897,13027,42202,37465,1
2759902,3888,39769,36280,1
2759907,16660,27318,38713,1
2759912,9346,46859,33160,1
2759917,19956,38265,42122,1
2759922,9954,39689,41706,1
2759927,5713,31959,39321,1
2759932,9858,41450,39417,1
2759937,12899,42650,37497,1
2759942,4113,35512,43866,1
2759947,7153,39401,31479,1
2759952,7825,44698,36296,1
2759957,5857,43210,43002,1
2759962,5793,39993,37897,1
2759967,7729,32215,37769,1
2759972,7873,41978,37913,1
2759977,9090,41162,39193,1
2759982,4193,39609,35224,1
2759987,10530,34424,43610,1
2759992,6129,40425,38793,1
2759997,6113,44010,42426,1
2760002,6913,39161,39577,1
2760007,5537,33800,35480,1
2760012,6705,37081,45034,1
2760017,2272,42202,46475,1
2760322,7361,42090,39321,2
2760327,7553,38265,35672,2
2760332,12947,40809,39945,2
2760337,2016,42330,40457,2
2760342,3312,40889,39049,2
2760347,11682,37113,40281,2
2760352,6817,38521,36696,2
2760357,6145,45002,41818,2
2760362,8242,42490,37545,2
2760367,5201,37433,35416,2
2760374,15267,35288,38249,2
2760379,7041,41562,39625,2
2760384,22421,45387,41834,2
2760389,8658,38249,36504,2
2760394,8226,40729,39097,2
2760399,11794,46171,43786,2
2760404,5201,38441,36312,2
2760409,7841,37593,36568,2
2760414,20485,35176,37417,2
2760419,5089,42810,44378,2
2760424,23365,46507,39001,2
2760429,11218,37577,35784,2
2760434,7073,39577,44042,2
2760439,8514,42042,46043,2
2760444,13299,37593,32936,2
2760449,12371,40089,35032,2
2760454,15779,37193,34776,2
2760459,2064,44602,41546,2
2760464,24421,45755,42986,2
2760469,9218,38553,36664,2
2760474,6833,40009,45131,2
2760479,4977,43610,42426,2
2760484,7681,42170,36424,2
2760489,15059,37673,37337,2
2760494,16884,35320,41194,2
2760499,2848,42666,39273,2
2760504,23045,46523,40521,2
2760509,8770,37145,38249,2
2760514,7585,39145,43226,2
2760519,11234,48443,49067,2
2760524,14867,45243,37641,2
2760529,7313,37145,30775,2
2760534,19140,34824,35848,2
2760539,2064,42122,42474,2
2760544,28246,46683,43386,2
2760549,8306,37561,36184,2
2760554,6753,37897,45739,2
2760559,4961,44298,44522,2
2760599,6481,41674,43994,2
2760604,8386,42426,35928,2
2760609,7969,36840,35752,2
2760614,18516,36424,35240,2
2760619,5393,43946,40345,2
2760624,24149,46155,46459,2
2760629,10162,37897,36040,2
2760634,7217,40457,45979,2
2760639,5617,44874,44154,2
2760644,7425,43322,35480,2
2760649,7489,39513,33832,2
2760654,19492,33768,38105,2
2760659,5649,42058,45115,2
2760664,15795,43114,39241,2
2760669,6529,35304,34456,2
2760674,3728,39273,45515,2
2760679,4097,41098,45883,2
2760684,4481,38457,37689,2
2760689,4113,33464,37257,2
2760694,16019,39769,39097,2
2760699,4048,42938,41354,2
2760704,23749,44266,45451,2
2760709,9090,36472,37913,2
2760714,6401,40873,44202,2
2760719,7425,43242,45675,2
2760724,8129,42682,35512,2
2760729,8434,35752,35256,2
2760734,19460,34488,38393,2
2760739,5233,44442,38921,2
2760744,21301,44154,45179,2
2760749,8386,35592,37081,2
2760754,8818,37865,47419,2
2760759,7249,45339,46379,2
2760764,9218,42442,38617,2
2760769,9170,38281,33928,2
2760774,21509,35160,33240,2
2760779,4785,41674,41434,2
2760786,16820,40393,42346,2
2760791,7873,38521,38985,2
2760796,7809,43402,43114,2
2760801,5889,43866,46411,2
2760806,7841,40265,36360,2
2760811,8962,37961,34504,2
2760816,10498,38841,39065,2
2760821,3456,44122,38233,2
2760826,15315,44186,36856,2
2760831,8594,38937,33336,2
2760836,7441,47195,37145,2
2760841,8161,46171,41450,2
2760846,7761,39769,36424,2
2760851,6593,35544,40329,2
2760856,10626,40761,36296,2
2760861,4433,43050,44106,2
2760866,13139,40329,41034,2
2760871,5617,36216,37977,2
2760876,5841,42602,40457,2
2760881,7777,46603,41386,2
2760886,6977,41082,39977,2
2760891,7953,38809,35464,2
2760896,10498,37673,40986,2
2760901,4481,42746,41050,2
2760906,14195,44186,34200,2
2760911,8065,39193,36824,2
2760916,19220,34696,38617,2
2760921,6081,42362,40889,2
2760926,2720,39401,38681,2
2760931,2544,35896,36953,2
2760936,2352,41418,38777,2
2760941,2560,43002,41242,2
2760946,2432,40137,38489,2
2760951,2384,36184,35544,2
2760956,3728,44442,36280,2
2760961,4177,46331,38057,2
2760966,3968,40105,39369,2
2760973,3360,37545,37705,2
2760978,2624,42682,41386,2
2760983,2736,41498,43290,2
2760988,2848,38121,38329,2
2760993,3264,39561,37833,2
2760998,3024,44906,40649,2
2761003,2848,40489,44010,2
2761008,2896,40793,31143,2
2761013,3008,38377,39017,2
2761018,3120,48875,33720,2
2761023,3360,41434,40729,2
2761028,3168,41738,32439,2
2761033,4753,38857,36969,2
2761038,2480,43162,42714,2
2761043,2864,43290,40329,2
2761048,2880,38569,34712,2
2761053,3232,37001,41402,2
2761058,4241,41322,40153,2
2761063,2864,41370,41978,2
2761068,2096,36905,37305,2
2761073,2912,37993,39113,2
2761078,2880,40521,46859,2
2761083,2496,42266,38985,2
2761088,2352,36760,38585,2
2761093,2656,38553,35736,2
2761098,1984,41018,39945,2
2761103,3264,40633,41194,2
2761108,2688,38073,38025,2
2761113,2912,38617,37769,2
2761118,2224,42522,40457,2
2761123,2576,41546,41050,2
2761128,2448,40089,31335,2
2761133,2960,37001,39225,2
2761138,2928,43930,40089,2
2761143,2864,40537,40793,2
2761148,2304,37593,37241,2
2761153,2784,37337,39241,2
2761158,5937,44330,43530,2
2761165,3008,36873,42474,2
2761170,3856,35336,34280,2
2761175,2352,41018,40185,2
2761180,3504,43258,43242,2
2761185,2976,38121,42266,2
2761190,2560,34392,36776,2
2761195,3488,38601,40761,2
2761200,3152,42474,44202,2
2761205,2640,38681,41178,2
2761210,2448,35832,36040,2
2761215,3072,38233,41242,2
2761220,15827,46843,43322,2
2761225,4000,37577,42522,2
2761230,2944,35400,35496,2
2761235,3552,38953,40217,2
2761240,3168,42042,43098,2
2761245,8065,40265,43498,2
2761250,3072,35432,34168,2
2761255,2400,38409,39977,2
2761260,2192,44554,45067,2
2761265,2640,38233,38905,2
2761270,2816,34376,37673,2
2761275,2560,39049,40297,2
2761280,2864,41450,44810,2
2761285,2576,42458,36873,2
2761290,5313,37593,36360,2
2761295,2608,45291,31463,2
2761300,2704,41098,45979,2
2761305,2528,37625,42586,2
2761310,2208,36072,36200,2
2761315,3104,37993,38825,2
2761320,3472,44154,40521,2
2761325,3104,36168,42026,2
2761330,3904,33864,38777,2
2761335,2624,41690,35992,2
2761340,2128,43258,42218,2
2761345,2544,38265,42906,2
2761350,2432,30919,40121,2
2761391,1936,35512,36136,2
2761396,3024,40169,37897,2
2761401,2672,43866,42458,2
2761406,3376,38489,40201,2
2761411,13139,39129,37897,2
2761416,2416,40009,37961,2
2761421,3808,42090,42634,2
2761426,2880,38985,39993,2
2761431,2480,35496,34648,2
2761436,2240,41642,37929,2
2761441,2752,42634,41914,2
2761446,2640,38153,40409,2
2761451,2528,33112,37449,2
2761456,2496,38521,39113,2
2761461,2864,41770,45499,2
2761466,2336,41322,34984,2
2761471,5329,30775,39481,2
2761476,6321,42634,41226,2
2761481,4048,41690,42538,2
2761486,3136,39625,40889,2
2761491,2752,35848,34824,2
2761496,2224,39433,39673,2
2761501,3152,43530,41514,2
2761506,2352,38073,41770,2
2761511,2640,36072,35304,2
2761516,3264,39497,39593,2
2761521,2720,44890,40905,2
2761526,2528,39161,40073,2
2761531,2128,41066,28951,2
2761536,2736,38617,40313,2
2761541,2480,42778,43034,2
2761546,2496,39705,38857,2
2761551,2304,36520,35784,2
2761556,2480,40105,38665,2
2761561,2784,43418,42458,2
2761566,2720,38025,40025,2
2761571,3168,35176,35240,2
2761576,2608,40073,38537,2
2761583,2400,43482,40393,2
2761588,2560,38761,38057,2
2761593,3376,35528,36200,2
2761598,2240,39801,40825,2
2761603,2608,44554,41034,2
2761608,2544,39465,35816,2
2761613,3344,35928,35448,2
2761618,2048,42714,39177,2
2761623,2816,43114,42122,2
2761628,2912,38393,38553,2
2761633,2560,37353,32936,2
2761638,1904,39193,43146,2
2761643,2784,44186,40073,2
2761648,2144,42858,31575,2
2761653,2560,35832,37353,2
2761658,2576,42330,38297,2
2761663,2560,43402,40633,2
2761668,2992,37817,37593,2
2761673,2400,35384,37433,2
2761678,3888,42570,39081,2
2761683,2448,45275,36953,2
2761688,2208,38905,37849,2
2761693,10546,32551,34456,2
2761698,3856,39145,39849,2
2761703,2704,43802,40745,2
2761708,2432,38969,38617,2
2761713,2576,35000,38185,2
2761718,2784,40441,44218,2
2761723,2656,43930,42986,2
2761728,2432,37465,37817,2
2761733,3568,36008,37353,2
2761738,2144,40761,38537,2
2761743,2544,44522,39817,2
2761748,8370,41258,40761,2
2761753,3216,34040,38265,2
2761758,2272,40057,38297,2
2761763,2656,41162,43802,2
2761768,15107,45419,38441,2
2761775,2352,37817,34280,2
2761780,3360,41882,39065,2
2761785,2224,41354,40873,2
2761790,2128,36856,35304,2
2761795,2336,40057,34584,2
2761800,3904,46795,38553,2
2761805,2624,39449,41482,2
2761810,2944,35592,41690,2
2761815,2352,41578,33336,2
2761820,2432,40393,44266,2
2761825,2704,36328,42970,2
2761830,2720,36088,41082,2
2761835,2480,37257,38425,2
2761840,3360,40681,42410,2
2761845,2848,39017,44442,2
2761850,2016,37737,37881,2
2761855,2272,36296,41290,2
2761860,3872,45339,36776,2
2761865,2592,40793,40201,2
2761870,2272,33816,41002,2
2761875,2752,36985,39081,2
2761880,3936,41146,42922,2
2761885,2064,42170,38857,2
2761890,2416,35464,41738,2
2761895,2544,36873,40873,2
2761900,2720,39305,44170,2
2761905,2704,36280,45355,2
2761910,4385,37561,35608,2
2761915,2656,35320,41834,2
2761920,2944,39129,46731,2
2761925,2912,41322,41642,2
2761930,2096,37977,38921,2
2761935,2880,36536,40329,2
2761940,3072,41226,41706,2
2761945,3280,41322,42778,2
2761950,12771,39049,42234,2
2761955,2256,40825,36504,2
2761962,2496,42266,41466,2
2761967,3120,39049,38569,2
2761972,2480,34552,34488,2
2761977,7825,42058,40681,2
2761982,2800,45387,38569,2
2761987,2480,39529,39657,2
2761992,2304,36024,37353,2
2761997,2640,40153,38041,2
2762002,2816,41802,43786,2
2762007,3344,39673,38825,2
2762012,2256,34856,33432,2
2762017,8386,42442,39897,2
2762022,2336,45419,38473,2
2762027,2944,42602,36424,2
2762032,2384,31655,39161,2
2762037,4129,41498,41050,2
2762042,2720,43242,42058,2
2762047,2880,37721,39353,2
2762052,2208,37193,36632,2
2762057,3264,38937,38409,2
2762062,2784,43162,42058,2
2762067,2464,39193,37801,2
2762072,3120,35544,36921,2
2762077,1696,40873,40345,2
2762082,1952,43930,41434,2
2762087,2688,37785,41594,2
2762092,2704,33592,34936,2
2762097,2576,39449,38713,2
2762102,3216,46139,40633,2
2762107,2496,38345,38425,2
2762112,2480,36008,37417,2
2762117,2624,39065,40681,2
2762122,2368,45595,41962,2
2762127,2544,40970,40649,2
2762132,2384,33448,35224,2
2762137,9074,40873,38025,2
2762142,2464,43162,42106,2
2762147,4273,40617,37353,2
2762187,2848,35432,34264,2
2762192,3040,35848,38937,2
2762197,2336,38553,39337,2
2762202,2496,44266,39353,2
2762207,2464,38921,40073,2
2762212,2704,33896,34152,2
2762217,4497,42026,37257,2
2762222,2736,44538,42394,2
2762227,2272,43594,34840,2
2762232,2304,34296,36744,2
2762237,6273,41626,39129,2
2762242,2592,43818,41594,2
2762247,7553,42010,40137,2
2762252,2624,34792,32647,2
2762257,2560,40105,38873,2
2762262,1872,45979,39593,2
2762267,2736,40201,37929,2
2762272,2528,35944,35416,2
2762277,2240,38857,39161,2
2762282,2336,43306,41018,2
2762287,2800,39369,41338,2
2762292,2384,34280,35064,2
2762297,6353,40409,38889,2
2762302,2368,41946,45563,2
2762307,1888,40681,38297,2
2762312,2352,35800,33832,2
2762317,2176,38857,36376,2
2762322,3056,44218,39529,2
2762327,2144,40057,40185,2
2762332,2768,35224,39369,2
2762337,29543,45083,48827,2
2762342,14531,45627,47083,2
2762347,7185,41562,39097,2
2762352,3744,37385,38441,2
2762357,4016,38169,36280,2
2762362,5457,43994,42842,2
2762367,5217,40297,38489,2
2762372,6065,35688,37465,2
2762379,8530,39193,41306,2
2762384,8226,42682,44442,2
2762389,8017,40553,40409,2
2762394,6257,34776,39353,2
2762399,4481,42058,32071,2
2762404,8450,43210,44874,2
2762409,6993,40617,41354,2
2762414,3200,37033,34616,2
2762419,2160,37209,45291,2
2762424,3952,44042,41962,2
2762429,5553,43338,37017,2
2762434,2400,38473,32535,2
2762439,3072,39161,44714,2
2762444,4497,44554,41082,2
2762449,3216,37721,43610,2
2762454,3888,35864,36937,2
2762459,3840,37081,43258,2
2762464,3232,43786,43322,2
2762469,11138,41818,40409,2
2762474,5697,37321,38377,2
2762479,8226,42314,35400,2
2762484,5201,40681,49083,2
2762489,5697,40553,37289,2
2762494,5009,35112,40649,2
2762499,5553,38601,41802,2
2762504,4913,42474,42682,2
2762509,5697,39209,41642,2
2762514,6817,34408,38521,2
2762519,7265,38473,38105,2
2762524,3984,42858,43690,2
2762529,2848,38345,40393,2
2762534,2864,35560,33720,2
2762539,13283,38985,44330,2
2762544,7265,44490,41994,2
2762549,5537,40521,39673,2
2762554,4801,34792,41690,2
2762559,4497,40121,38441,2
2762564,4849,43450,44682,2
2762571,3152,35800,38009,2
2762576,4016,37769,38393,2
2762581,11618,42266,36584,2
2762586,7937,39769,49484,2
2762591,2688,36088,36873,2
2762596,4064,37593,38505,2
2762601,2992,42922,37081,2
2762606,3872,42250,41114,2
2762611,3392,37577,41066,2
2762616,10258,36328,42074,2
2762621,6257,43114,43370,2
2762626,5617,45018,35784,2
2762631,5281,37849,41242,2
2762636,7121,38361,35704,2
2762641,4129,39561,47675,2
2762646,21605,37545,38985,2
2762651,6113,36024,35288,2
2762656,3552,37833,34664,2
2762661,2192,43034,38169,2
2762666,4529,41834,40793,2
2762671,2832,35560,39001,2
2762676,2784,35400,36776,2
2762681,3776,40425,41626,2
2762686,2080,42730,40521,2
2762691,4305,35160,36280,2
2762696,3296,35848,37817,2
2762701,2608,42378,39305,2
2762706,2784,40729,41770,2
2762711,2512,38761,34632,2
2762716,2080,36088,36520,2
2762721,2608,41066,40057,2
2762726,2992,42554,39753,2
2762731,2896,34376,40009,2
2762736,2704,37721,34568,2
2762741,2304,41002,39289,2
2762746,4193,44682,36953,2
2762751,1952,37817,38409,2
2762756,2848,37049,35160,2
2762763,2128,43818,41738,2
2762768,3936,38377,38953,2
2762773,3696,35368,35672,2
2762778,2752,38361,39401,2
2762783,3184,43754,43770,2
2762788,2496,40249,38889,2
2762793,2608,35288,35496,2
2762798,3360,40345,35272,2
2762803,2480,41530,46603,2
2762808,2576,39465,40617,2
2762813,2384,35592,35640,2
2762818,2272,38457,39353,2
2762823,2048,43722,41434,2
2762828,2336,40377,38633,2
2762833,2128,36776,36344,2
2762838,6737,41258,40745,2
2762843,3408,45563,41194,2
2762848,2240,39385,39225,2
2762853,2512,35432,35336,2
2762858,2880,38297,36552,2
2762863,2480,46139,42362,2
2762868,2128,40409,39609,2
2762873,3024,33832,35976,2
2762878,2480,39161,37625,2
2762883,1920,45131,38377,2
2762888,3648,40313,39097,2
2762893,2688,35448,35736,2
2762898,2304,38089,38345,2
2762903,2768,44762,42218,2
2762908,2496,40649,37929,2
2762913,3360,36937,34936,2
2762918,2320,38633,38601,2
2762923,5009,41914,42442,2
2762928,4385,40986,38649,2
2762933,2960,36392,33688,2
2762938,2464,40489,36889,2
2762943,2960,41642,41738,2
2762948,2496,40153,40169,2
2762990,3888,37049,40713,2
2762995,2320,37305,35576,2
2763000,3296,37417,37897,2
2763005,2272,39945,47979,2
2763010,2704,38105,39113,2
2763015,2096,36344,29271,2
2763020,3024,41018,39641,2
2763025,3376,38649,47899,2
2763030,3376,39529,39129,2
2763035,2192,36040,34328,2
2763040,3536,38473,36440,2
2763045,2864,40041,49756,2
2763050,1760,41674,38473,2
2763055,2512,35880,34552,2
2763060,2720,40281,40825,2
2763065,2240,43514,40345,2
2763070,2112,37513,41178,2
2763075,2368,37865,31095,2
2763080,3344,37657,42186,2
2763085,3072,43018,42602,2
2763090,2528,40137,34856,2
2763095,2336,36072,35640,2
2763100,6113,42554,37529,2
2763105,2320,44218,41434,2
2763110,2656,39961,35720,2
2763115,2208,35608,34408,2
2763120,4497,41098,36696,2
2763125,2144,43546,41658,2
2763130,2448,39337,37785,2
2763135,2688,36873,33384,2
2763140,2832,39881,37001,2
2763145,2320,44586,41722,2
2763150,1936,38601,37849,2
2763155,2608,35496,36552,2
2763160,4000,39785,38265,2
2763165,2384,43098,40601,2
2763170,1968,39881,36360,2
2763177,1936,37465,35672,2
2763182,3792,41818,39977,2
2763187,2176,40986,45339,2
2763192,2496,40601,28294,2
2763197,3040,34920,36072,2
2763202,4721,40121,39561,2
2763207,2416,40873,46587,2
2763212,4545,35272,36088,2
2763217,8145,35288,41066,2
2763222,2784,37817,46411,2
2763227,4945,39625,43082,2
2763232,4145,37481,35464,2
2763237,2752,36937,33896,2
2763242,6625,41370,39097,2
2763247,9938,43610,44522,2
2763252,4145,32327,44042,2
2763257,3632,34328,37225,2
2763262,3392,41530,42122,2
2763267,3616,41898,40617,2
2763272,2752,35448,39177,2
2763277,4625,33720,36120,2
2763282,1568,42074,36392,2
2763287,2912,43274,41402,2
2763292,4593,34840,37577,2
2763297,5569,34824,40377,2
2763302,3984,44362,36440,2
2763307,2320,42634,44282,2
2763312,6801,42890,29815,2
2763317,2608,40857,32776,2
2763322,4080,44730,33416,2
2763327,3552,40249,42986,2
2763332,1824,33560,36088,2
2763337,2560,34488,38745,2
2763342,8434,43514,37785,2
2763347,3856,42730,41770,2
2763352,7697,37897,41098,2
2763357,2176,35656,30631,2
2763362,6257,40505,41002,2
2763369,7873,37145,40553,2
2763374,2720,32023,38633,2
2763379,2976,35896,40889,2
2763384,5649,41914,49532,2
2763389,4016,41050,38009,2
2763394,2768,34456,38569,2
2763399,2736,36808,38569,2
2763404,3040,41482,45034,2
2763409,2064,43146,31255,2
2763414,2368,32856,39497,2
2763419,3344,32023,42826,2
2763424,2384,40793,43354,2
2763429,2464,39209,42266,2
2763434,4064,39241,29319,2
2763439,3920,35656,39529,2
2763444,2832,37049,47963,2
2763449,7441,36889,39209,2
2763454,2960,34776,38393,2
2763459,2640,37657,30855,2
2763464,5809,39209,45771,2
2763469,3152,39193,41658,2
2763474,2176,34312,32391,2
2763479,12242,38665,43146,2
2763484,2080,42634,36840,2
2763489,4593,39081,40665,2
2763494,2624,33832,39017,2
2763499,3648,35016,39481,2
2763504,4177,37081,45803,2
2763509,2368,38505,42922,2
2763514,2576,34184,37385,2
2763519,1680,38265,38217,2
2763524,2672,42458,37705,2
2763529,1904,41402,35576,2
2763534,2800,36889,35512,2
2763539,3984,34008,40745,2
2763544,2720,43178,37241,2
2763549,2016,40601,39177,2
2763554,2624,38345,31511,2
2763561,7233,34712,39081,2
2763566,3040,43674,39321,2
2763571,2176,36776,42394,2
2763576,3344,35704,32535,2
2763581,1728,38473,44250,2
2763586,5473,40793,43402,2
2763591,12162,41898,42570,2
2763596,1888,35272,31751,2
2763601,3808,37369,38985,2
2763606,2640,41274,48491,2
2763611,2384,39929,33784,2
2763616,2064,35784,37945,2
2763621,3248,40281,35064,2
2763626,4385,40185,45371,2
2763631,3424,36456,40473,2
2763636,2880,36664,38617,2
2763641,3248,38425,38585,2
2763646,2864,42266,44250,2
2763651,2272,36344,41786,2
2763656,2128,37049,33848,2
2763661,2560,38873,41274,2
2763666,2608,41706,44554,2
2763671,2672,38745,40537,2
2763676,2656,34904,34984,2
2763681,5441,37577,38217,2
2763686,2528,42538,43962,2
2763691,4657,36520,38201,2
2763696,2400,36776,33704,2
2763701,2768,38921,40425,2
2763706,4417,42826,44042,2
2763711,12515,40281,44906,2
2763716,2512,34792,34728,2
2763721,4929,41898,30183,2
2763726,3088,40265,48891,2
2763731,2864,37705,40905,2
2763736,4209,37209,35064,2
2763741,2144,39193,40153,2
2763746,1632,41946,44314,2
2763787,3600,39433,40489,2
2763792,11682,42474,41146,2
2763797,3216,35944,37497,2
2763802,2176,37145,40009,2
2763807,9522,47979,38569,2
2763812,3232,36760,40761,2
2763817,1728,32856,37529,2
2763822,2848,38601,42250,2
2763827,2256,43354,42746,2
2763832,4769,38121,36152,2
2763837,2000,33672,36584,2
2763842,3152,35864,39561,2
2763847,12371,44650,49900,2
2763852,1952,35816,43418,2
2763857,3104,32711,37945,2
2763862,4641,34232,40873,2
2763867,2528,42426,44266,2
2763872,10082,43018,36937,2
2763877,4657,31991,45707,2
2763882,3008,35752,43066,2
2763887,2000,41882,45371,2
2763892,2288,42474,30503,2
2763897,4529,34328,42938,2
2763902,2096,39641,36264,2
2763907,2128,43562,42794,2
2763912,17348,41546,43770,2
2763917,4705,34040,36248,2
2763922,5057,36792,39433,2
2763927,4016,43722,41706,2
2763932,3008,38505,38505,2
2763937,15523,39001,39609,2
2763942,2256,38217,39913,2
2763947,2512,41786,46331,2
2763952,5009,39257,35176,2
2763957,3264,35640,33656,2
2763962,3984,37449,39529,2
2763967,18580,48171,48939,2
2763974,3504,35864,37785,2
2763979,2592,33528,38889,2
2763984,5537,38233,41578,2
2763989,2256,40201,43114,2
2763994,5473,33992,35576,2
2763999,1600,36424,37209,2
2764004,19252,45099,47211,2
2764009,3760,40553,40681,2
2764014,5681,35128,38313,2
2764019,5921,30775,41210,2
2764024,2400,39161,44474,2
2764029,6145,39209,40473,2
2764034,4433,35688,40825,2
2764039,2704,36504,37625,2
2764044,5553,39401,41530,2
2764049,6257,39449,39881,2
2764054,2576,34360,39193,2
2764059,2080,34472,38201,2
2764064,1760,39961,42938,2
2764069,3904,42202,41610,2
2764074,5025,35080,38329,2
2764079,17924,37401,41274,2
2764084,4161,43194,36248,2
2764089,7217,39177,41578,2
2764094,3136,36520,39209,2
2764099,3424,34440,36376,2
2764104,5857,40697,33848,2
2764109,2704,41610,40697,2
2764114,3104,37161,35352,2
2764119,2528,35352,38569,2
2764124,2480,40553,43306,2
2764129,2016,40970,41786,2
2764134,3152,36632,38281,2
2764139,3568,34696,36440,2
2764144,2528,44474,34776,2
2764149,2288,39017,47051,2
2764154,2336,36136,37593,2
2764159,1824,32888,42970,2
2764166,3328,40809,45131,2
2764171,4241,36840,40713,2
2764176,3728,34472,35768,2
2764181,3552,35240,41978,2
2764186,2560,42058,44618,2
2764191,14003,42490,43882,2
2764196,2528,34248,37113,2
2764201,5345,35128,40361,2
2764206,3408,42522,45467,2
2764211,3232,41450,37177,2
2764216,2576,36216,36760,2
2764221,1984,37401,35000,2
2764226,3984,41818,45371,2
2764231,2176,39417,41434,2
2764236,2320,35352,36744,2
2764241,2208,34504,41354,2
2764246,2976,42138,45627,2
2764251,2976,39865,35064,2
2764256,3536,35736,37417,2
2764261,2368,38169,35592,2
2764266,3344,41498,45323,2
2764271,2272,39705,38521,2
2764276,2512,35624,36440,2
2764281,4977,35768,38697,2
2764286,3088,42778,44234,2
2764291,7313,40713,45067,2
2764296,2416,35848,34040,2
2764301,1616,35608,41034,2
2764306,3616,39561,47211,2
2764311,12435,42138,46507,2
2764316,2080,40105,31335,2
2764321,3760,38233,36488,2
2764326,2160,44394,42922,2
2764331,2288,39753,40345,2
2764336,2688,36504,35864,2
2764341,2448,38249,37593,2
2764346,3184,41546,44202,2
2764351,2096,38857,43178,2
2764358,1728,35880,36440,2
2764363,2240,40649,38345,2
2764368,1968,44890,43098,2
2764373,2384,38073,39385,2
2764378,2544,38169,34168,2
2764383,2304,39689,38617,2
2764388,3552,40761,44810,2
2764393,7873,35544,39801,2
2764398,2416,36248,36953,2
2764403,2688,40249,36616,2
2764408,12995,47387,43418,2
2764413,4048,36664,39513,2
2764418,3040,34936,35192,2
2764423,14483,43226,42730,2
2764428,2624,43226,44538,2
2764433,4000,37577,39689,2
2764438,2400,35816,34360,2
2764443,3136,39737,37177,2
2764448,4897,42602,41402,2
2764453,3008,37817,38329,2
2764458,2192,35016,35096,2
2764463,17092,44218,38665,2
2764468,2992,43098,42842,2
2764473,5569,34616,42906,2
2764478,2288,35944,34216,2
2764483,2256,39577,38825,2
2764488,2496,44186,43962,2
2764493,3856,37321,43290,2
2764498,3040,36168,36712,2
2764503,2176,39497,39129,2
2764508,2144,46411,35608,2
2764513,6561,37961,37737,2
2764518,2400,34760,36680,2
2764523,2208,37145,45067,2
2764528,11922,50428,40537,2
2764533,4048,37737,38153,2
2764538,2272,33752,38441,2
2764543,13827,44442,39433,2
2764583,8482,41978,38121,2
2764588,2416,44186,41386,2
2764593,2352,38729,39129,2
2764598,2272,33032,38985,2
2764603,1856,41018,39225,2
2764608,2304,41818,45867,2
2764613,3216,37737,39769,2
2764618,2256,36264,36937,2
2764623,2176,39449,40057,2
2764628,2368,42314,43994,2
2764633,4689,36584,40233,2
2764638,2048,35304,35496,2
2764643,1984,39081,39753,2
2764648,7681,45531,40409,2
2764653,2960,40505,38345,2
2764658,11522,39129,34312,2
2764663,9106,41514,44618,2
2764668,6625,39721,45547,2
2764673,4016,36889,40970,2
2764678,3920,36376,34232,2
2764683,2576,40793,33736,2
2764688,4353,41466,44458,2
2764693,3472,37481,39865,2
2764698,2512,37465,34744,2
2764703,6785,42394,40121,2
2764708,2640,43178,41770,2
2764713,2224,39609,35192,2
2764718,3872,33864,36808,2
2764723,5041,38169,42202,2
2764728,2080,45067,39561,2
2764733,3648,36360,42490,2
2764738,1952,35272,35144,2
2764743,1872,44362,32231,2
2764748,1904,47739,36889,2
2764753,3584,37785,35832,2
2764758,1888,34920,33128,2
2764763,2400,39689,38073,2
2764770,2400,42810,37609,2
2764775,2016,37913,37545,2
2764780,2672,35224,35624,2
2764785,3664,38217,43898,2
2764790,2416,42522,42650,2
2764795,3760,37337,38217,2
2764800,3728,33176,37097,2
2764805,2336,38937,41434,2
2764810,5057,43290,43722,2
2764815,2368,38137,37721,2
2764820,2480,34600,37177,2
2764825,2688,39769,37625,2
2764830,2512,42058,43722,2
2764835,2080,38473,38537,2
2764840,2336,34056,37289,2
2764845,2496,40297,40425,2
2764850,2528,38249,49580,2
2764855,2208,41642,35144,2
2764860,4032,33000,38729,2
2764865,2320,38793,39897,2
2764870,2272,41434,44186,2
2764875,2560,37945,35288,2
2764880,6497,37033,36840,2
2764885,2448,39849,41306,2
2764890,3104,43306,41370,2
2764895,2672,36600,40905,2
2764900,2528,36472,32583,2
2764905,5633,39497,38825,2
2764910,1968,41738,45227,2
2764915,2048,38569,38409,2
2764920,1680,34712,37433,2
2764925,3216,39353,43674,2
2764930,4673,45579,37721,2
2764935,2864,38697,37641,2
2764940,2480,37161,36040,2
2764945,2960,38953,42330,2
2764950,1984,45387,37609,2
2764955,2592,37913,38489,2
2764962,3632,36248,38809,2
2764967,2560,42698,41290,2
2764972,1488,41946,39273,2
2764977,2352,37769,35592,2
2764982,1984,38457,36520,2
2764987,1936,44266,41098,2
2764992,5153,43450,39641,2
2764997,2080,35816,35864,2
2765002,2640,38505,37705,2
2765007,4225,45995,37593,2
2765012,1856,44330,37097,2
2765017,1632,40841,31447,2
2765022,7969,39705,41130,2
2765027,2352,42858,42986,2
2765032,2096,42986,34856,2
2765037,2704,34968,39337,2
2765042,2448,38761,36312,2
2765047,2144,40873,42154,2
2765052,9618,44026,40809,2
2765057,2320,39193,35256,2
2765062,2640,39449,35448,2
2765067,1760,41610,42090,2
2765072,2192,42570,40057,2
2765077,2720,37977,39097,2
2765082,5089,38377,41034,2
2765087,2224,45931,35000,2
2765092,2480,41546,37513,2
2765097,2544,41130,36248,2
2765102,2096,38041,35736,2
2765107,2352,41834,42506,2
2765112,1952,42730,36824,2
2765117,2576,38057,34792,2
2765122,2464,39961,34392,2
2765127,6049,40201,46235,2
2765132,2336,42122,39513,2
2765137,2128,36248,39641,2
2765142,5009,36040,40777,2
2765147,1744,37033,48187,2
2765154,1696,41178,34376,2
2765159,2640,30119,39673,2
2765164,2064,42698,32247,2
2765169,2880,40745,47643,2
2765174,2128,39049,39657,2
2765179,2208,34632,34056,2
2765184,2304,40249,40009,2
2765189,1824,43274,41610,2
2765194,4080,39305,38409,2
2765199,3168,35464,32103,2
2765204,2656,39929,41562,2
2765209,2256,42794,41626,2
2765214,2064,39385,40345,2
2765219,2112,37001,31431,2
2765224,2224,41194,38633,2
2765229,2272,43626,39929,2
2765234,2288,39609,39561,2
2765239,2384,30039,40345,2
2765244,2320,39881,41914,2
2765249,2704,42458,40809,2
2765254,2288,39145,37673,2
2765259,3056,34744,36360,2
2765264,2800,42522,33112,2
2765269,2624,42586,42554,2
2765274,3248,37785,39081,2
2765279,12595,39817,38345,2
2765284,3232,40265,39097,2
2765289,6177,45739,39161,2
2765294,2704,37673,43418,2
2765299,2480,34008,34232,2
2765304,4048,44554,33160,2
2765309,2128,42522,42810,2
2765314,3824,39113,34760,2
2765319,8242,40361,39497,2
2765324,2384,40057,36168,2
2765329,4145,40025,45547,2
2765334,2000,37513,41242,2
2765339,2384,32231,37097,2
2765380,2784,33832,35304,2
2765385,2240,37577,40169,2
2765390,2048,41658,44170,2
2765395,2112,38489,39273,2
2765400,3008,34328,37545,2
2765405,4545,40697,38521,2
2765410,2080,45515,38089,2
2765415,1936,38617,40537,2
2765420,2160,36072,37657,2
2765425,2704,40649,36889,2
2765430,2336,39337,44858,2
2765435,4561,34888,44618,2
2765440,1536,42074,35576,2
2765445,2032,42602,38825,2
2765450,1440,41642,43738,2
2765455,1760,36905,42554,2
2765460,2896,34680,37577,2
2765465,2960,39737,35736,2
2765470,2080,40009,43850,2
2765475,2048,38473,37625,2
2765480,2592,36969,33224,2
2765485,2304,40521,39081,2
2765490,2272,43274,41258,2
2765495,2592,39449,40473,2
2765500,2848,34648,36280,2
2765505,2304,41050,35928,2
2765510,3808,44634,41402,2
2765515,2672,34520,46235,2
2765520,3088,32695,39193,2
2765525,2416,45515,35816,2
2765530,2608,43242,41018,2
2765535,3888,40585,39129,2
2765540,2000,32663,38089,2
2765545,3936,40441,38841,2
2765550,2656,42986,42090,2
2765555,2480,38745,38137,2
2765560,2496,33000,37097,2
2765565,3568,40473,40809,2
2765572,3664,40986,41578,2
2765577,4032,40073,38617,2
2765582,2048,35816,36184,2
2765587,2304,40986,40025,2
2765592,2752,43754,39241,2
2765597,2048,37801,36824,2
2765602,2976,34904,36680,2
2765607,2304,41802,39977,2
2765612,3968,42074,40329,2
2765617,1936,36312,39177,2
2765622,2320,34696,37737,2
2765627,4961,39513,39433,2
2765632,4080,44634,40473,2
2765637,6273,39881,36728,2
2765642,13859,39049,37593,2
2765647,2352,40569,40617,2
2765652,6145,41354,41562,2
2765657,2400,37721,39033,2
2765662,4657,34504,38537,2
2765667,2240,38025,44906,2
2765672,2448,42618,42394,2
2765677,2112,37641,38377,2
2765682,2672,35288,37561,2
2765687,2464,38937,41418,2
2765692,3200,42538,41850,2
2765697,5121,39561,38729,2
2765702,2176,36264,36376,2
2765707,2144,40009,41162,2
2765712,2176,42906,41130,2
2765717,1936,35576,36248,2
2765722,2336,35832,39209,2
2765727,2288,39913,42154,2
2765732,2352,43738,43306,2
2765737,7729,40617,37993,2
2765742,2352,34232,37769,2
2765747,2432,38953,41690,2
2765752,2288,41914,42522,2
2765757,2208,38409,37753,2
2765764,3200,35464,38921,2
2765769,2592,41418,42282,2
2765774,2208,38233,42042,2
2765779,2288,33400,37225,2
2765784,3136,36408,39017,2
2765789,2208,39785,44618,2
2765794,2272,39481,40121,2
2765799,2672,36120,38121,2
2765804,2208,38025,40761,2
2765809,2816,40425,42362,2
2765814,2144,38953,41114,2
2765819,2208,34376,39401,2
2765824,1456,37481,38601,2
2765829,2448,41050,42762,2
2765834,2608,39001,42522,2
2765839,2544,34744,38041,2
2765844,2352,36552,40057,2
2765849,2512,41290,42218,2
2765854,2288,39625,40249,2
2765859,2224,35752,37705,2
2765864,2112,38089,36776,2
2765869,10082,43594,44186,2
2765874,2464,39209,41386,2
2765879,3536,35416,38153,2
2765884,2512,36072,40697,2
2765889,2160,40873,41578,2
2765894,1808,38825,42378,2
2765899,2128,35576,38201,2
2765904,2384,35880,39753,2
2765909,3744,41706,41274,2
2765914,3440,40473,40873,2
2765919,1808,36856,36152,2
2765924,4129,36889,39625,2
2765929,2400,41450,41658,2
2765934,2912,41610,38825,2
2765939,2048,34280,39625,2
2765944,2592,37049,39561,2
2765949,2448,41274,41786,2
2765956,2640,38169,38089,2
2765961,1872,35224,35944,2
2765966,2656,38553,40345,2
2765971,3776,43802,40970,2
2765976,2464,38473,39657,2
2765981,2096,37017,33096,2
2765986,3008,42346,36168,2
2765991,2016,40553,46235,2
2765996,2448,37257,41114,2
2766001,2800,35496,36456,2
2766006,2480,39337,42042,2
2766011,2480,43402,42810,2
2766016,2048,43338,32663,2
2766021,2384,34728,37993,2
2766026,2368,39465,40633,2
2766031,2112,43050,44042,2
2766036,2944,38153,39065,2
2766041,1984,37897,29591,2
2766046,2784,38681,42554,2
2766051,2048,45451,39113,2
2766056,2144,43706,31463,2
2766061,2320,34232,38329,2
2766066,2352,38953,41786,2
2766071,2320,43610,43578,2
2766076,2384,38761,38329,2
2766081,2576,33448,36712,2
2766086,3104,37993,42202,2
2766091,2192,41738,44602,2
2766096,2640,38169,39257,2
2766101,2432,33720,36168,2
2766106,3072,38681,42106,2
2766111,2480,42714,45195,2
2766116,2256,38041,39529,2
2766121,2704,34168,35880,2
2766126,2608,38041,41226,2
2766131,2640,44362,44090,2
2766136,2720,39177,38857,2
2766141,10274,33848,33608,2
2766182,2736,33464,37129,2
2766187,2480,39145,40713,2
2766192,2816,43354,43402,2
2766197,2144,38585,39369,2
2766202,3712,33960,37593,2
2766207,2256,38809,41994,2
2766212,2080,45403,38889,2
2766217,3920,38185,42650,2
2766222,2336,34536,38697,2
2766227,2400,37065,43162,2
2766232,3168,40553,45227,2
2766237,2480,38681,41242,2
2766242,2624,34088,36840,2
2766247,1824,39561,42666,2
2766252,2624,40745,44842,2
2766257,2496,38745,39065,2
2766262,2784,33304,37673,2
2766267,2640,39945,41482,2
2766272,2624,45355,41626,2
2766277,3472,39513,37737,2
2766282,2608,34824,34424,2
2766287,2752,40585,40521,2
2766292,2608,41978,42074,2
2766297,3232,40521,38985,2
2766302,2560,35160,36600,2
2766307,3360,39305,39273,2
2766312,2464,43818,42698,2
2766317,2176,39369,37209,2
2766322,2368,37849,33960,2
2766327,2320,40745,40313,2
2766332,2288,45179,39113,2
2766337,1968,39865,37913,2
2766342,4721,36584,37545,2
2766347,3088,38617,39993,2
2766352,2592,42938,44170,2
2766357,2288,38009,39673,2
2766362,9506,37353,36648,2
2766369,2912,39673,41450,2
2766374,2016,41658,42314,2
2766379,2816,35688,37721,2
2766384,1984,40665,33336,2
2766389,2576,39385,43818,2
2766394,2432,42602,43226,2
2766399,2080,37657,38313,2
2766404,2480,35448,36344,2
2766409,2832,39673,40249,2
2766414,2992,38697,45771,2
2766419,2272,36008,38153,2
2766424,20036,39577,40745,2
2766429,8418,43658,40537,2
2766434,5329,43690,42410,2
2766439,5809,38793,38313,2
2766444,3984,37961,37993,2
2766449,4897,39817,40393,2
2766454,15059,40970,37625,2
2766459,4449,38393,34328,2
2766464,16564,40537,40857,2
2766469,7153,42234,41322,2
2766474,4417,41818,45002,2
2766479,5361,38569,37081,2
2766484,3632,35928,38073,2
2766489,5537,42346,42170,2
2766494,15795,39369,39257,2
2766499,4193,38969,36136,2
2766504,18324,42506,36360,2
2766509,6257,41578,41434,2
2766514,5505,42730,42442,2
2766519,6193,39145,38569,2
2766524,5617,35336,40217,2
2766529,4593,41402,39065,2
2766534,13539,40265,39737,2
2766539,4385,36889,38585,2
2766544,17172,39833,40521,2
2766549,7377,41498,41914,2
2766554,6241,43642,40681,2
2766561,5121,36328,35896,2
2766566,22869,33496,35320,2
2766571,8434,42858,40697,2
2766576,2896,40377,39545,2
2766581,9794,38841,37321,2
2766586,2224,38137,39193,2
2766591,2512,42826,42090,2
2766596,2256,40761,38537,2
2766601,2496,36905,34776,2
2766606,2016,38761,39577,2
2766611,10546,44986,45099,2
2766616,7889,39641,38745,2
2766621,2256,35992,36200,2
2766626,9874,39769,38857,2
2766631,4769,41290,40105,2
2766636,3360,40585,39225,2
2766641,2992,36600,34568,2
2766646,2592,37449,39849,2
2766651,22933,49019,44426,2
2766656,4641,39897,39577,2
2766661,2224,37177,35256,2
2766666,12451,39913,40329,2
2766671,9794,37737,46091,2
2766676,2144,39641,40441,2
2766681,2240,35736,37705,2
2766686,2832,35528,39449,2
2766691,21605,49356,39993,2
2766696,3136,39593,40377,2
2766701,2960,33736,37913,2
2766706,12899,41786,36664,2
2766711,6129,40521,42522,2
2766716,2288,38249,42810,2
2766721,1648,36856,36856,2
2766726,2208,38857,39065,2
2766731,20789,50124,41242,2
2766736,2432,40425,38665,2
2766741,1984,37113,36216,2
2766746,10242,41258,37049,2
2766753,7409,39929,44890,2
2766758,10642,36120,36456,2
2766763,2912,34712,37161,2
2766768,2736,40361,39225,2
2766773,11698,42314,35896,2
2766778,2672,39657,37033,2
2766783,19300,42554,34200,2
2766788,6785,37689,39465,2
2766793,2400,43354,38793,2
2766798,3984,41162,37625,2
2766803,7089,38137,35128,2
2766808,9714,36728,40377,2
2766813,2816,40409,44666,2
2766818,2304,37209,39673,2
2766823,2064,38233,35560,2
2766828,1952,40569,36664,2
2766833,6865,47243,41738,2
2766838,2432,38025,39385,2
2766843,2448,36024,35016,2
2766848,2256,40025,38937,2
2766853,2544,42714,41322,2
2766858,2416,39001,37385,2
2766863,17252,45563,30167,2
2766868,6577,43370,34168,2
2766873,5329,46891,41578,2
2766878,4689,39401,38585,2
2766883,10050,33064,36456,2
2766888,6673,42666,39321,2
2766893,22629,35512,41306,2
2766898,4529,37593,36520,2
2766903,17652,39177,39001,2
2766908,7537,40841,41994,2
2766913,5249,42602,46219,2
2766918,4513,39577,37289,2
2766923,3376,38185,30871,2
2766928,3664,39609,41194,2
2766933,23525,37385,40745,2
2766975,9122,40777,39433,2
2766980,3888,35768,39113,2
2766985,14531,38569,40121,2
2766990,6529,43210,38345,2
2766995,4993,42826,43402,2
2767000,3328,38153,37657,2
2767005,4161,35352,38425,2
2767010,4257,39913,41834,2
2767015,10418,39753,38473,2
2767020,6465,37225,37689,2
2767025,11778,41770,33704,2
2767030,6161,37257,47147,2
2767035,5569,42522,43322,2
2767040,4161,38121,38921,2
2767045,6817,35336,40313,2
2767050,5073,39241,44010,2
2767055,10114,42362,37529,2
2767060,3424,39241,38521,2
2767065,13347,42090,34504,2
2767070,5601,40713,43098,2
2767075,5329,43738,44138,2
2767080,4993,36921,39881,2
2767085,5153,35464,36664,2
2767090,4321,40633,42522,2
2767095,12419,38969,44154,2
2767100,4849,35544,43882,2
2767105,12050,39657,36616,2
2767110,6097,37961,45707,2
2767115,5441,42042,44042,2
2767120,4609,39225,41194,2
2767125,6609,35896,39865,2
2767130,6417,40473,41514,2
2767135,9538,38553,47323,2
2767140,3088,41018,36728,2
2767145,16772,39497,36296,2
2767150,8017,41962,40713,2
2767155,3632,42378,42730,2
2767162,5105,36376,37849,2
2767167,5729,39881,37625,2
2767172,5249,43450,39849,2
2767177,5233,42170,36664,2
2767182,10162,39081,38809,2
2767187,4032,38185,39465,2
2767192,6337,42506,42234,2
2767197,5521,43146,38809,2
2767202,6785,39673,35592,2
2767207,4865,37049,41050,2
2767212,4801,44138,38681,2
2767217,1856,41242,39609,2
2767222,1648,36584,37193,2
2767227,9698,41290,39017,2
2767232,7649,40986,44234,2
2767237,6961,43210,39145,2
2767242,6081,40713,34664,2
2767247,13795,32968,37225,2
2767252,5729,44842,37769,2
2767257,7377,42842,33256,2
2767262,2752,36008,38921,2
2767267,8850,42810,35064,2
2767272,4497,45083,38889,2
2767277,5841,43370,37945,2
2767282,4753,36889,38713,2
2767287,7105,41898,35272,2
2767292,6417,44586,38233,2
2767297,3296,42074,38617,2
2767302,2192,35592,39753,2
2767307,9058,39993,37753,2
2767312,5041,42506,41322,2
2767317,4177,41274,39897,2
2767322,4609,39577,36040,2
2767327,4097,37785,36969,2
2767332,4993,43146,39481,2
2767337,7025,40745,41658,2
2767342,3152,36504,39257,2
2767347,4241,36905,37193,2
2767354,4641,41530,42842,2
2767359,4545,40361,35480,2
2767364,5057,37129,35736,2
2767369,5409,41882,38361,2
2767374,14563,34984,50060,2
2767379,4113,38025,40121,2
2767384,14435,42330,31191,2
2767389,5905,41402,39593,2
2767394,4865,44618,43370,2
2767399,5633,42266,36152,2
2767404,6097,34968,37609,2
2767409,5313,40601,39593,2
2767414,13539,36937,44138,2
2767419,7265,35160,43274,2
2767424,16035,42970,34024,2
2767429,6417,42122,38777,2
2767434,6209,44826,43226,2
2767439,4833,39209,39049,2
2767444,6545,37865,37625,2
2767449,16644,30471,43386,2
2767454,10978,41354,43498,2
2767459,2240,37961,42602,2
2767464,17348,41370,33800,2
2767469,6849,42842,37961,2
2767474,7793,45755,44874,2
2767479,8113,40217,38969,2
2767484,8450,39577,34744,2
2767489,6385,42970,37913,2
2767494,10994,38697,44634,2
2767499,11522,38249,39625,2
2767504,17348,40137,34760,2
2767509,6161,39865,41098,2
2767514,6657,46379,40745,2
2767519,21701,33000,39513,2
2767524,6769,32776,39449,2
2767529,2560,38985,41082,2
2767534,5889,45643,40457,2
2767539,6225,34696,41578,2
2767546,2336,33880,36728,2
2767551,1840,40521,40137,2
2767556,2528,42202,42634,2
2767561,2832,38713,38825,2
2767566,2304,35352,38105,2
2767571,17348,47387,39401,2
2767576,5905,41882,41338,2
2767581,3152,38969,36905,2
2767586,2912,36088,39721,2
2767591,2768,39593,41130,2
2767596,2928,41802,40825,2
2767601,2112,37625,39753,2
2767606,2320,37657,32087,2
2767611,2768,42010,37017,2
2767616,2624,42090,42330,2
2767621,2176,35800,41050,2
2767626,2624,34216,38057,2
2767631,4513,39481,39817,2
2767636,2912,42410,40553,2
2767641,3072,37833,40537,2
2767646,3168,34712,36040,2
2767651,3600,40505,38233,2
2767656,2432,43658,41002,2
2767661,2816,40505,37817,2
2767666,2944,34520,35464,2
2767671,3328,40233,36536,2
2767676,5713,43770,44042,2
2767681,3456,37193,37289,2
2767686,17508,40009,40745,2
2767691,5329,37289,39865,2
2767696,2992,44106,43626,2
2767701,2784,39193,37241,2
2767706,2992,35544,36520,2
2767711,12162,40521,43610,2
2767716,2912,42170,40473,2
2767721,2752,39065,37689,2
2767726,3824,36120,37833,2
2767766,3280,32423,38009,2
2767771,2960,37513,40809,2
2767776,2736,42762,42202,2
2767781,2560,39129,36889,2
2767786,3344,35288,39129,2
2767791,5553,40649,42506,2
2767796,2976,46539,33688,2
2767801,2864,38825,36985,2
2767806,3360,35048,39369,2
2767811,3312,40425,35816,2
2767816,7793,49292,34936,2
2767821,3040,38297,37865,2
2767826,3168,35192,35864,2
2767831,8113,43098,36889,2
2767836,3376,42682,42426,2
2767841,2768,40009,34424,2
2767846,2544,36296,36921,2
2767851,2976,40345,34488,2
2767856,3328,42170,45579,2
2767861,3104,38297,41194,2
2767866,3968,35816,33896,2
2767871,2976,40169,37977,2
2767876,2944,42490,43210,2
2767881,2896,40361,37769,2
2767886,3536,36808,37001,2
2767891,2960,38057,41210,2
2767896,2880,42090,42298,2
2767901,3376,40025,35880,2
2767906,3728,36792,35256,2
2767911,2640,39721,37097,2
2767916,3056,42938,40649,2
2767921,4241,41146,39225,2
2767926,2800,36552,33448,2
2767931,2512,40553,37497,2
2767936,2176,40729,44554,2
2767941,2896,39305,37561,2
2767946,2576,35272,38153,2
2767951,2704,37785,42474,2
2767958,3472,41258,41050,2
2767963,2688,36840,37865,2
2767968,2768,38265,36376,2
2767973,2864,42714,39577,2
2767978,10866,44842,42538,2
2767983,2416,35480,41866,2
2767988,2256,37465,38713,2
2767993,6337,43210,40393,2
2767998,2416,39961,41514,2
2768003,2576,37065,38761,2
2768008,2528,37225,37977,2
2768013,3040,39625,41466,2
2768018,4753,43498,37833,2
2768023,2448,33624,45867,2
2768028,2976,37865,36312,2
2768033,3296,40857,39369,2
2768038,7297,43850,40761,2
2768043,2736,36840,39129,2
2768048,2544,37289,35544,2
2768053,2192,41322,41242,2
2768058,2896,42538,39225,2
2768063,2464,38233,37145,2
2768068,2640,35784,34984,2
2768073,4257,37129,46971,2
2768078,7905,42762,38009,2
2768083,7681,36712,40970,2
2768088,2960,35816,35320,2
2768093,2640,40841,42138,2
2768098,5585,42778,40361,2
2768103,5009,37177,39001,2
2768108,13219,40489,39145,2
2768113,3248,39385,42778,2
2768118,2640,41530,41226,2
2768123,2272,39385,37193,2
2768128,2672,36264,36937,2
2768133,2640,39977,41802,2
2768138,4273,40745,38201,2
2768143,4273,37369,40249,2
2768150,4241,38457,38217,2
2768155,7777,42522,42730,2
2768160,3376,39657,38665,2
2768165,2896,34072,36472,2
2768170,3248,38457,41338,2
2768175,3200,44170,41226,2
2768180,3728,37961,38617,2
2768185,2896,34952,36056,2
2768190,4721,38841,38553,2
2768195,4609,42826,42922,2
2768200,3280,39017,39241,2
2768205,10866,34616,36536,2
2768210,2624,38313,37865,2
2768215,2992,42426,42938,2
2768220,3440,39449,38185,2
2768225,3520,35656,35432,2
2768230,6321,41498,40729,2
2768235,3088,42410,44074,2
2768240,3824,38409,40986,2
2768245,4145,33624,37993,2
2768250,3920,38377,37257,2
2768255,5425,41978,45499,2
2768260,2672,40633,40345,2
2768265,2944,35960,36664,2
2768270,5985,36424,43962,2
2768275,4689,42810,44074,2
2768280,3328,39337,40457,2
2768285,4769,34232,37977,2
2768290,7025,38873,42346,2
2768295,4849,42474,41978,2
2768300,3632,42714,33352,2
2768305,3040,35032,39913,2
2768310,25334,44074,40377,2
2768315,4433,41146,39369,2
2768320,7761,39177,40537,2
2768325,3664,35592,37481,2
2768330,3008,38153,38681,2
2768335,3232,41162,45563,2
2768342,4897,37145,40073,2
2768347,2864,37929,28614,2
2768352,4241,39529,36504,2
2768357,3120,42090,41178,2
2768362,4080,40121,39961,2
2768367,5649,35640,36232,2
2768372,7201,41114,40169,2
2768377,4545,42506,41290,2
2768382,4064,37641,37785,2
2768387,2896,36568,35512,2
2768392,5681,39721,35688,2
2768397,8946,45419,43642,2
2768402,4145,38649,38313,2
2768407,3728,36232,35816,2
2768412,3888,36264,39913,2
2768417,3888,42618,40537,2
2768422,3552,37577,38361,2
2768427,7873,36376,41466,2
2768432,4241,38553,37593,2
2768437,3488,42410,41610,2
2768442,4145,39001,36889,2
2768447,11170,38761,33576,2
2768452,4048,38553,42970,2
2768457,3120,42346,38377,2
2768462,3360,39657,41354,2
2768467,3856,38105,32920,2
2768472,3376,41370,37193,2
2768477,23157,45915,43914,2
2768482,7777,37977,37097,2
2768487,11778,38585,38025,2
2768492,7569,39385,39001,2
2768497,10514,44234,44986,2
2768502,5313,38761,39561,2
2768507,3408,37513,35448,2
2768512,3728,40970,38425,2
2768517,2976,45627,42138,2
2768522,4689,38617,38809,2
2768527,15331,39561,38953,2
2768568,9442,36232,34904,2
2768573,3232,40777,36120,2
2768878,7825,42250,44026,3
2768883,8210,40681,40681,3
2768888,3808,35720,37337,3
2768893,3776,43578,35112,3
2768898,4064,43914,42218,3
2768903,3632,39017,39273,3
2768908,5841,38105,34312,3
2768913,3744,37113,39865,3
2768918,3376,42826,42538,3
2768923,5537,41034,36360,3
2768928,12611,38041,40121,3
2768933,2736,38393,41786,3
2768938,4161,43466,39945,3
2768943,2784,39721,39561,3
2768948,3440,37817,34728,3
2768953,3488,40457,37897,3
2768958,3936,43610,42554,3
2768963,3536,38793,39961,3
2768968,5889,35672,37897,3
2768973,4000,36504,41322,3
2768978,4497,43754,42026,3
2768983,4257,41450,36056,3
2768988,3552,36937,36184,3
2768993,5505,38505,38441,3
2768998,4305,44266,40169,3
2769003,3888,39881,38265,3
2769008,3024,35960,36200,3
2769013,3488,40393,37993,3
2769018,3520,43274,44234,3
2769023,3056,39049,38809,3
2769028,3440,34136,37993,3
2769033,3424,38345,41626,3
2769038,2864,45451,40681,3
2769043,3328,42026,37513,3
2769048,3344,36248,36184,3
2769055,3824,39097,43802,3
2769060,3312,41146,44250,3
2769065,4897,36392,40473,3
2769070,3488,36120,38729,3
2769075,3824,39705,42074,3
2769080,3136,43850,36344,3
2769085,5121,36440,40617,3
2769090,6321,34408,39785,3
2769095,3328,39113,47387,3
2769100,10002,39945,42042,3
2769105,4673,37913,38217,3
2769110,4337,37625,36680,3
2769115,3248,40313,42586,3
2769120,3776,39017,44410,3
2769125,3664,36873,39081,3
2769130,3472,35256,39961,3
2769135,3728,39513,43354,3
2769140,3296,41514,43674,3
2769145,4145,36360,38713,3
2769150,3040,36456,37561,3
2769155,3056,40105,42506,3
2769160,3568,38921,44010,3
2769165,3632,36440,40585,3
2769170,5041,36184,36040,3
2769175,3056,38873,40409,3
2769180,3472,40649,44282,3
2769185,3840,37209,37177,3
2769190,3168,34312,39385,3
2769195,3552,42250,39321,3
2769200,7425,39945,43514,3
2769205,3568,37753,36696,3
2769210,4193,35208,37193,3
2769215,3760,39593,41610,3
2769220,3632,41274,43978,3
2769225,4241,38105,35560,3
2769230,3648,33720,39193,3
2769235,3552,42298,38345,3
2769240,3280,43066,39641,3
2769247,3808,36456,38553,3
2769252,3808,36568,38281,3
2769257,3872,40329,43994,3
2769262,3568,40457,39145,3
2769267,2960,36568,33240,3
2769272,3184,38521,37401,3
2769277,4064,42106,44074,3
2769282,3312,41386,37017,3
2769287,4113,35608,38073,3
2769292,3552,38057,36905,3
2769297,3184,40809,40585,3
2769302,3568,41178,36664,3
2769307,3120,38441,33320,3
2769312,5137,38665,36360,3
2769317,3488,41562,42010,3
2769322,10018,40986,44570,3
2769327,3584,35752,38809,3
2769332,2768,36040,37945,3
2769337,9554,42282,46427,3
2769342,3440,41562,36072,3
2769347,3392,38889,32840,3
2769352,4145,41770,31623,3
2769357,2480,41642,43498,3
2769362,3376,38969,44378,3
2769367,4000,36376,37577,3
2769372,2784,35576,43546,3
2769377,3200,40217,40265,3
2769382,2688,41418,36584,3
2769387,2992,36488,35624,3
2769392,3152,40537,32711,3
2769397,2688,41962,42666,3
2769402,10530,41978,43594,3
2769407,3184,38281,33560,3
2769412,4641,38233,36616,3
2769417,5553,43306,41386,3
2769422,2944,39593,41130,3
2769427,3072,38745,34264,3
2769432,3424,37433,35912,3
2769439,2864,42506,43098,3
2769444,2864,39897,37897,3
2769449,3392,35896,33880,3
2769454,3408,39945,37193,3
2769459,2672,43066,41722,3
2769464,3184,41002,37961,3
2769469,3424,36120,38361,3
2769474,3632,39033,38313,3
2769479,5713,42842,40537,3
2769484,25254,42122,40986,3
2769489,4817,36264,32247,3
2769494,5521,40057,36088,3
2769499,3920,43322,41642,3
2769504,4657,41882,37929,3
2769509,3344,35976,34296,3
2769514,4321,40297,36873,3
2769519,2944,42570,42954,3
2769524,4161,40025,37049,3
2769529,3280,35976,33704,3
2769534,3264,38825,40361,3
2769539,4545,41162,42922,3
2769544,3104,36472,39177,3
2769549,2704,35736,37001,3
2769554,3120,39817,41338,3
2769559,3760,41690,45163,3
2769564,4225,34632,46459,3
2769569,3344,35704,37721,3
2769574,3344,40009,39049,3
2769579,3536,41834,43162,3
2769584,3952,39449,37849,3
2769589,4113,35240,35736,3
2769594,3472,38249,40009,3
2769599,2832,40329,45803,3
2769604,3696,36328,45531,3
2769609,3232,35016,36824,3
2769614,3392,39593,39945,3
2769619,2688,44954,38025,3
2769624,3280,40393,37321,3
2769665,3808,38105,38649,3
2769670,4145,34840,36728,3
2769675,3168,38137,42634,3
2769680,4417,42106,41050,3
2769685,3696,38377,37881,3
2769690,4641,35176,41354,3
2769695,3648,38041,39689,3
2769700,4657,43978,39353,3
2769705,3456,38089,42202,3
2769710,3776,36456,39113,3
2769715,3312,38009,39801,3
2769720,3056,43018,39689,3
2769725,2576,39705,38889,3
2769730,3840,36808,35672,3
2769735,3536,38425,38169,3
2769740,3104,43738,42474,3
2769745,3568,40041,38681,3
2769750,3136,35784,37289,3
2769755,4401,39625,42378,3
2769760,3808,42266,41162,3
2769765,4048,39177,40073,3
2769770,3744,36969,35304,3
2769775,3984,38953,41674,3
2769780,3872,42058,44266,3
2769785,3296,39305,38889,3
2769790,3680,36280,38233,3
2769795,3536,39273,40633,3
2769800,4257,42234,42986,3
2769805,3200,39529,39913,3
2769810,13075,37465,37977,3
2769815,8113,39945,40089,3
2769820,5249,41706,41914,3
2769825,3024,37561,41770,3
2769830,3520,35304,38425,3
2769835,2752,40665,39721,3
2769840,3680,42410,41930,3
2769845,8802,37865,40697,3
2769850,3360,37065,32968,3
2769857,2864,40313,42202,3
2769862,3264,43242,38441,3
2769867,5569,41114,32840,3
2769872,3584,37033,36552,3
2769877,2720,40073,43594,3
2769882,2624,40441,40457,3
2769887,7169,38921,38137,3
2769892,2880,38377,34168,3
2769897,10690,43658,41466,3
2769902,3632,43050,39369,3
2769907,2912,38889,35992,3
2769912,11874,41578,31191,3
2769917,2224,39609,43434,3
2769922,3168,42506,38729,3
2769927,5601,36664,38505,3
2769932,3792,37449,33368,3
2769937,13299,44410,42154,3
2769942,3888,42490,41290,3
2769947,2992,37977,35464,3
2769952,2912,37769,33784,3
2769957,4529,43514,38377,3
2769962,3040,41882,39209,3
2769967,2944,38185,38713,3
2769972,10018,39961,34728,3
2769977,7633,42058,42538,3
2769982,4545,41962,39929,3
2769987,3040,37689,38649,3
2769992,4385,36376,35528,3
2769997,11106,42906,43546,3
2770002,3984,41914,41482,3
2770007,3680,37257,39737,3
2770012,2192,35928,35304,3
2770017,4865,42554,41530,3
2770022,4321,43610,42842,3
2770027,3792,42042,29655,3
2770032,7697,38329,36376,3
2770037,11394,42858,43066,3
2770044,5201,37721,41370,3
2770049,3088,35320,38745,3
2770054,6497,38041,37209,3
2770059,3632,43690,39593,3
2770064,8097,39465,40521,3
2770069,3712,35528,37657,3
2770074,3536,37913,40585,3
2770079,2736,43834,39833,3
2770084,4064,37913,41882,3
2770089,14947,35720,40393,3
2770094,2032,39321,39625,3
2770099,5697,40089,43114,3
2770104,3136,40425,38521,3
2770109,3792,35816,36760,3
2770114,4289,36632,39945,3
2770119,4481,40073,44778,3
2770124,4000,39833,41194,3
2770129,3760,33496,36969,3
2770134,3088,37257,39897,3
2770139,5313,38857,43866,3
2770144,2320,39561,41546,3
2770149,4209,35464,37369,3
2770154,3072,38297,36056,3
2770159,6081,43082,38313,3
2770164,4481,40633,37897,3
2770169,3936,35208,38953,3
2770174,3488,37065,38537,3
2770179,4097,40169,43130,3
2770184,4705,39113,42458,3
2770189,4113,35704,38505,3
2770194,3744,37305,42282,3
2770199,3824,41082,41994,3
2770204,3472,39401,40681,3
2770209,3408,36024,37145,3
2770214,3856,37849,37817,3
2770219,4097,41162,42266,3
2770224,3888,40793,40361,3
2770229,3328,35816,37113,3
2770236,3168,39065,39097,3
2770241,3824,42698,41850,3
2770246,3200,39353,39625,3
2770251,4225,35784,35016,3
2770256,4080,38633,39369,3
2770261,5889,43722,39561,3
2770266,5009,35672,44058,3
2770271,4561,35608,36008,3
2770276,4064,39673,40185,3
2770281,3840,40025,41738,3
2770286,4577,39561,39721,3
2770291,3488,35288,36792,3
2770296,3616,39225,38873,3
2770301,4064,42842,43658,3
2770306,5185,37449,40217,3
2770311,7873,36889,33272,3
2770316,5265,37833,39881,3
2770321,3504,42890,42730,3
2770326,2944,38361,42250,3
2770331,3760,35368,34840,3
2770336,3728,39273,37737,3
2770341,4321,43146,41610,3
2770346,3840,39289,39065,3
2770351,3504,35480,37481,3
2770356,4161,40457,37353,3
2770361,4225,42666,41418,3
2770366,3024,39513,38249,3
2770371,3792,35176,37225,3
2770376,3312,37673,38601,3
2770381,3680,44250,40105,3
2770386,3760,39849,38681,3
2770391,3648,34840,36664,3
2770396,3152,40265,35768,3
2770401,6833,43722,40537,3
2770406,2912,40761,36824,3
2770411,7841,33656,37577,3
2770416,7153,38137,38857,3
2770421,3920,42938,39417,3
2770462,5201,40489,43242,3
2770467,3472,38745,38985,3
2770472,4000,36136,36296,3
2770477,3392,39433,40153,3
2770482,3600,42362,43098,3
2770487,3376,41322,36328,3
2770492,5745,36216,37209,3
2770497,5249,36392,40777,3
2770502,10498,43210,44570,3
2770507,4353,38873,40329,3
2770512,13283,37065,39033,3
2770517,2992,38697,41610,3
2770522,3264,41626,43594,3
2770527,4801,39897,40553,3
2770532,9506,35848,38809,3
2770537,15171,41162,41386,3
2770542,4080,41066,43674,3
2770547,4193,38153,40377,3
2770552,3136,35768,39001,3
2770557,3552,38729,40265,3
2770562,4417,41802,42506,3
2770567,3024,39769,39929,3
2770572,4369,34568,36520,3
2770577,3792,37817,39065,3
2770582,6689,41818,43738,3
2770587,4016,36969,42394,3
2770592,3056,35224,35528,3
2770597,3264,38937,39929,3
2770602,2576,42266,43018,3
2770607,3008,38089,38649,3
2770612,4113,34664,38009,3
2770617,18116,41850,42634,3
2770622,3152,42218,37561,3
2770627,4080,39593,36552,3
2770632,2816,37065,31991,3
2770637,3344,39993,37609,3
2770642,3824,44538,41050,3
2770649,3456,37097,35352,3
2770654,3152,36776,35720,3
2770659,8722,42138,42074,3
2770664,5777,41546,39993,3
2770669,3296,37337,34856,3
2770674,3664,37497,36776,3
2770679,4529,39481,42266,3
2770684,3632,39657,42730,3
2770689,3968,36873,38921,3
2770694,3712,36152,37833,3
2770699,4785,41034,41242,3
2770704,5217,40505,40585,3
2770709,4177,36728,38985,3
2770714,6081,36696,35080,3
2770719,2352,41514,41370,3
2770724,4353,40505,42250,3
2770729,3808,36408,38425,3
2770734,4881,35832,37545,3
2770739,5905,41114,40681,3
2770744,4401,40745,42154,3
2770749,3344,37081,38409,3
2770754,3008,35080,40473,3
2770759,8994,39145,42314,3
2770764,4529,40601,41642,3
2770769,5825,36232,39625,3
2770774,2880,34824,38553,3
2770779,4561,39017,43130,3
2770784,2336,44522,35544,3
2770789,3920,37113,38425,3
2770794,3488,33448,42922,3
2770799,4689,40889,40201,3
2770804,3952,40889,42234,3
2770809,3600,36088,38585,3
2770814,3296,36440,37817,3
2770819,4097,41706,39593,3
2770824,4193,41210,42202,3
2770829,3840,37385,38105,3
2770834,4080,35672,36937,3
2770841,2976,42634,40073,3
2770846,4865,38697,39577,3
2770851,3376,34904,39257,3
2770856,5857,39337,38009,3
2770861,4609,40505,46555,3
2770866,5617,38745,41706,3
2770871,3856,35368,37113,3
2770876,3744,38841,38473,3
2770881,8017,43370,44890,3
2770886,3936,36520,43306,3
2770891,3104,40089,23765,3
2770896,2992,38345,40201,3
2770901,3136,44762,39801,3
2770906,5057,37897,42218,3
2770911,4032,34152,37465,3
2770916,4257,38473,38489,3
2770921,3840,43274,41626,3
2770926,3024,39977,40809,3
2770931,3072,35688,34328,3
2770936,3680,38073,39513,3
2770941,3264,46123,33448,3
2770946,3376,38489,40921,3
2770951,3248,36376,37257,3
2770962,3184,44970,39641,3
2770967,2688,38009,42762,3
2770972,4241,32792,40777,3
2770977,8081,40793,42394,3
2770982,3568,42202,40777,3
2770987,3472,40970,36824,3
2770992,4865,33816,37305,3
2770997,7329,38537,43690,3
2771002,4113,41802,45339,3
2771007,3728,40489,36120,3
2771012,3536,35048,35128,3
2771017,8514,44458,28999,3
2771022,3904,41658,47691,3
2771027,3392,39449,38713,3
2771032,3200,35816,34200,3
2771039,2480,40441,38505,3
2771044,4433,44314,38745,3
2771049,3680,35864,40537,3
2771054,2640,32279,41130,3
2771059,3104,39625,37081,3
2771064,3344,43114,38793,3
2771069,5297,38937,38937,3
2771074,3424,34600,39977,3
2771079,3920,39881,39929,3
2771084,3200,41482,44298,3
2771089,3488,34840,43082,3
2771094,4048,37033,32567,3
2771099,3104,39225,42506,3
2771104,2992,43610,34408,3
2771109,4785,36408,40873,3
2771114,2736,35688,36840,3
2771119,3984,41578,35976,3
2771124,7889,43866,34712,3
2771129,3872,36584,38553,3
2771134,3840,36216,41530,3
2771139,3808,39561,43850,3
2771144,2896,44762,40441,3
2771149,2720,37945,35368,3
2771154,2704,36280,35080,3
2771159,4513,40713,38281,3
2771164,3280,40697,47243,3
2771169,3632,39913,34520,3
2771174,3392,36712,34056,3
2771179,3120,38793,39113,3
2771184,4129,41290,45371,3
2771189,3792,38793,39881,3
2771194,3104,35784,36488,3
2771199,3136,39817,39241,3
2771204,5361,43130,38985,3
2771209,4801,38025,37097,3
2771214,6385,35096,34616,3
2771219,3120,40233,39273,3
2771224,4225,41290,42538,3
2771265,4993,41306,40361,3
2771270,5425,34184,42362,3
2771275,3664,36104,38777,3
2771280,4097,39433,42618,3
2771285,3040,40809,42074,3
2771290,3136,38697,36728,3
2771295,3520,37513,35080,3
2771300,3264,40617,40265,3
2771305,4113,43018,39161,3
2771310,3008,39273,33240,3
2771315,3520,34920,40169,3
2771320,3984,39241,42058,3
2771325,3824,41802,39545,3
2771330,3696,35736,38633,3
2771335,3712,36232,35000,3
2771340,4225,36504,38233,3
2771345,3472,41306,37993,3
2771350,3472,37129,36792,3
2771355,2944,35240,37897,3
2771360,2928,40393,43578,3
2771365,3360,41162,44922,3
2771370,2592,39257,37353,3
2771375,3712,36921,37209,3
2771380,4177,39353,41242,3
2771385,4032,41978,38729,3
2771390,3456,37385,37593,3
2771395,3088,35592,36280,3
2771400,4000,41354,41050,3
2771405,3632,42426,43818,3
2771410,3872,37481,39177,3
2771415,3296,35160,33704,3
2771420,4209,40009,40633,3
2771425,3728,42538,45819,3
2771430,3888,39481,35656,3
2771435,4193,38025,31095,3
2771440,4353,41162,41258,3
2771445,3072,42346,44026,3
2771450,3008,36024,39673,3
2771457,4385,39177,38025,3
2771462,3696,40986,41946,3
2771467,3328,38793,42586,3
2771472,4080,35896,33704,3
2771477,3904,37161,37865,3
2771482,4401,42074,46171,3
2771487,3872,40617,35240,3
2771492,4273,34424,35864,3
2771497,3936,37289,37145,3
2771502,8194,44058,43690,3
2771507,3776,39849,40970,3
2771512,3296,34552,37369,3
2771517,5697,39193,40729,3
2771522,4593,41930,44138,3
